# intensity: 0.85410971285087
# background: 0
#           Q (1/A)             dQ (1/A)                    R                   dR               theory              fresnel
  0.0143638509998554 0.000172034672953007    0.563772478510338   0.0219327036236455    0.489186624899601    0.240901803847299
  0.0144356702548547 0.000172830203215175    0.503511282246842     0.02012062230369    0.482676906461037    0.234933238089238
   0.014507848606129 0.000173631849580501    0.511960716352559   0.0206833164882095    0.474624247432133    0.227709291319422
  0.0145803878491596 0.000174439576066227    0.509487146824925   0.0204068250765232    0.464950905233773    0.219252282529362
  0.0146532897884054  0.00017525334842892    0.482945750386379   0.0195547568043686    0.453796204726267    0.209791717512305
  0.0147265562373474  0.00017607313412433    0.425216610346774   0.0174586271927159    0.441529649932764    0.199749962749693
  0.0148001890185342 0.000176898902267944    0.449674889827278   0.0181061086609919    0.428646508180076    0.189622050407049
  0.0148741899636268 0.000177730623596271    0.466013355519615   0.0181939532687787    0.415601871831241    0.179818091938445
   0.014948560913445 0.000178568270428829    0.410181066232015   0.0169901011292686     0.40269895760039    0.170575919474646
  0.0150233037180122 0.000179411816630873    0.406072673942545   0.0162811266795052    0.390082663003704    0.161975993326395
  0.0150984202366022  0.00018026123757684    0.383942489627829   0.0157142117863409    0.377794746359713    0.154005649990825
  0.0151739123377852 0.000181116510114531    0.371334763797463   0.0151727566566386    0.365827088104745    0.146613097885261
  0.0152497818994742 0.000181977612530011    0.332411958770208   0.0147189776661591    0.354164789425853    0.139745843965761
  0.0153260308089715 0.000182844524513249    0.324749771076893   0.0145765355491229    0.342784576943978    0.133349569064971
  0.0154026609630164  0.00018371722712447    0.342921391110825   0.0144389100070528    0.331667130579512    0.127377610559484
  0.0154796742678315 0.000184595702761243    0.322307654490813   0.0137408601466724    0.320796422754354    0.121789585713485
  0.0155570726391706 0.000185479935126275    0.321271213172883   0.0134221042849564    0.310159193853076    0.116550315060142
  0.0156348580023665 0.000186369909195925    0.284664903230061    0.013054564570803    0.299744529610455    0.111628969430491
  0.0157130322923783 0.000187265611189424    0.293919950683051    0.012924779789697    0.289543515899424    0.106998386354388
  0.0157915974538402 0.000188167028538796    0.287211160774419   0.0126037971727309    0.279548953074763    0.102634516539223
  0.0158705554411094 0.000189074149859474     0.25617806924504   0.0117379651806974    0.269755116680771   0.0985159715038557
   0.015949908218315 0.000189986964921603    0.294712200573313   0.0124363508562569    0.260157554635139   0.0946236507641112
  0.0160296577594065 0.000190905464622021    0.268049420112848   0.0117019986920598    0.250752913388205   0.0909404322188812
  0.0161098060482036  0.00019182964095691    0.234055771036151   0.0109719947510151    0.241538787308578   0.0874509132131214
  0.0161903550784446 0.000192759486995113    0.237296317220803   0.0108080906712162    0.232513586850088   0.0841411925810551
  0.0162713068538368 0.000193694996852098    0.222984191507721   0.0103773538954507    0.223676422038424   0.0809986860870717
   0.016352663388106 0.000194636165664569    0.205033902223368  0.00977319244126872    0.215026998566332   0.0780119692809011
  0.0164344267050465  0.00019558298956571    0.206876998734406   0.0096271625688355     0.20656552436523   0.0751706430057602
  0.0165165988385717 0.000196535465661047    0.192974415050962  0.00914130776548669    0.198292624972312   0.0724652177411521
  0.0165991818327646 0.000197493592004936    0.185027305055227  0.00879515297543593    0.190209266366726   0.0698870136960744
  0.0166821777419284 0.000198457367577636     0.18216379034337  0.00879077973894067    0.182316684229303   0.0674280741445595
  0.0167655886306381 0.000199426792262994     0.16433851878109  0.00821989541144681    0.174616318804044   0.0650810899511591
  0.0168494165737912 0.000200401866826691    0.168832983229375  0.00835603914147432    0.167109754718706   0.0628393335969911
  0.0169336636566602 0.000201382592895081    0.158851085500461  0.00777393628415713    0.159798665265636    0.060696601308064
  0.0170183319749435 0.000202368972934572    0.159290940312369  0.00770552974348637    0.152684760759443   0.0586471621225158
  0.0171034236348182 0.000203361010231567    0.143442074351339   0.0074250601274399    0.145769740680611   0.0566857129240983
  0.0171889407529923  0.00020435870887294    0.154645386515902   0.0076746999675045    0.139055249387838   0.0548073386249127
  0.0172748854567573 0.000205362073727042    0.132279245161621   0.0068597862085046    0.132542835239968   0.0530074768081444
   0.017361259884041 0.000206371110425224    0.113597574493999  0.00640520730127036    0.126233913013447   0.0512818862469021
  0.0174480661834612 0.000207385825343864    0.121183633602497  0.00662222265870864    0.120129729535257   0.0496266188025614
  0.0175353065143786 0.000208406225586897    0.103717109258593  0.00586249934798976    0.114231332476084   0.0480379942786821
  0.0176229830469504 0.000209432318968819    0.114587140498656  0.00607662474414124    0.108539542265235   0.0465125778672961
  0.0177110979621852 0.000210464113998178   0.0989358618143024   0.0056984541980119    0.103054927098992   0.0450471598753504
  0.0177996534519961 0.000211501619861523   0.0884215873089635  0.00527009597512193   0.0977777810184154   0.0436387374620343
  0.0178886517192561 0.000212544846407807   0.0836354801650829   0.0051161869328455   0.0927081050322875   0.0422844981540419
  0.0179780949778524 0.000213593804133238    0.090674181245885  0.00531781148701223   0.0878455912564557   0.0409818049366455
  0.0180679854527416 0.000214648504166557   0.0868464534389049  0.00515242598221016   0.0831896100332918   0.0397281827447043
  0.0181583253800053 0.000215708958254748   0.0767723612569182  0.00471328798775381   0.0787391999848236   0.0385213062001496
  0.0182491170069054 0.000216775178749159   0.0737083936681122  0.00467958104894913   0.0744930609410648   0.0373589884617087
  0.0183403625919399 0.000217847178592023   0.0665159701840373  0.00437543686318343   0.0704495496717122   0.0362391710691344
  0.0184320644048996  0.00021892497130338   0.0635819912205681  0.00414924466174702   0.0666066783352439   0.0351599146784485
  0.0185242247269241  0.00022000857096838   0.0623490128000932  0.00406899997615765   0.0629621155450378   0.0341193905970027
  0.0186168458505587 0.000221097992224969    0.056114279119725  0.00383856240951362   0.0595131899378931   0.0331158730378242
  0.0187099300798115 0.000222193250251931   0.0510926726472371  0.00356284180422171   0.0562568961166686   0.0321477320219707
  0.0188034797302105 0.000223294360757297   0.0535596141342794  0.00363031950101488   0.0531899028260236   0.0312134268656898
  0.0188974971288616 0.000224401339967102    0.052143289507744  0.00363359471885031   0.0503085632087361   0.0303115001962128
  0.0189919846145059 0.000225514204614476   0.0448901478227006   0.0033106205284438   0.0476089269800635   0.0294405724461773
  0.0190869445375784  0.00022663297192908   0.0491392983847046  0.00339428034945341   0.0450867543492641   0.0285993367820705
  0.0191823792602663  0.00022775765962685   0.0428676026955814  0.00318197584110502   0.0427375315108975   0.0277865544268361
  0.0192782911565677 0.000228888285900069   0.0392077881230567  0.00304511303272092   0.0405564875239215   0.0270010503409622
  0.0193746826123505 0.000230024869407743   0.0386151747563319  0.00298604379233333   0.0385386123939861   0.0262417092300577
  0.0194715560254122 0.000231167429266272   0.0400436725234891  0.00303018386411149    0.036678676173668   0.0255074718501832
  0.0195689138055393  0.00023231598504042   0.0374035885992902  0.00291829593209563   0.0349712488966508   0.0247973315850888
   0.019666758374567 0.000233470556734566   0.0338155654883351  0.00268692371453421   0.0334107211649654   0.0241103312720718
  0.0197650921664398 0.000234631164784234   0.0333837908689356  0.00261976683636444   0.0319913252132389   0.0234455602554438
   0.019863917627272  0.00023579783004789   0.0321489333872738  0.00258756523516252   0.0307071562803165    0.022802151648623
  0.0199632372154084 0.000236970573799004    0.031829094901708  0.00252750227094847   0.0295521941264599   0.0221792797876724
  0.0200630534014854 0.000238149417718369   0.0307942336192721  0.00258232825834724    0.028520324543397   0.0215761578607222
  0.0201633686684928 0.000239334383886668    0.030828901421483  0.00242684378150775   0.0276053607146152   0.0209920356991528
  0.0202641855118353 0.000240525494777283   0.0239559018852115  0.00220950608376851   0.0268010642942477    0.020426197717714
  0.0203655064393945 0.000241722773249343   0.0281887600015919  0.00235160920399013   0.0261011660844961   0.0198779609919098
  0.0204673339715915 0.000242926242540998   0.0209558738918187  0.00202311827526109   0.0254993862035696    0.019346673462027
  0.0205696706414494  0.00024413592626292   0.0200069934313394  0.00192914246715091   0.0249894536484017   0.0188317122541179
  0.0206725189946566 0.000245351848392023   0.0239392888583662  0.00205032027696026   0.0245651251687451   0.0183324821090966
  0.0207758815896299  0.00024657403326539   0.0260046146690163  0.00212069246442385   0.0242202033814826   0.0178484139118674
  0.0208797609975781 0.000247802505574412   0.0249158874768368  0.00207372854723166   0.0239485540659611   0.0173789633130949
   0.020984159802566 0.000249037290359124   0.0239164797710159  0.00204637628007036   0.0237441225927199   0.0169236094368456
  0.0210890806015788 0.000250278413002737   0.0228944887122466  0.00193935400879183   0.0236009494490321   0.0164818536678956
  0.0211945260045867 0.000251525899226362   0.0208693889991662  0.00186138082804255   0.0235131848350889   0.0160532185130115
  0.0213004986346096 0.000252779775083916    0.021488907699417  0.00189709424646642   0.0234751023143593   0.0156372465309709
  0.0214070011277827 0.000254040066957209    0.023130886148193  0.00191166002072497   0.0234811115105856   0.0152334993265162
  0.0215140361334216 0.000255306801551209   0.0233647543827544  0.00189867708065605   0.0235257698519637   0.0148415566038141
  0.0216216063140887 0.000256580005889472    0.018401246815347   0.0017360104401392   0.0236037933702983   0.0144610152753437
  0.0217297143456591 0.000257859707309738   0.0240604409293078   0.0018933611498191    0.023710066569272    0.014091488622455
  0.0218383629173874 0.000259145933459695   0.0259545575009525  0.00198879318494186   0.0238396513814429    0.013732605504129
  0.0219475547319744 0.000260438712292888    0.024857702443843  0.00186541267486842   0.0239877952381815   0.0133840096107355
  0.0220572925056342 0.000261738072064791    0.023667212940265  0.00181215620010312   0.0241499382805018   0.0130453587598277
  0.0221675789681624 0.000263044041329019   0.0241116456658324  0.00191120724630435   0.0243217197416583   0.0127163242312343
  0.0222784168630032 0.000264356648933689    0.024334636286013  0.00183008801164558   0.0244989835345102   0.0123965901389133
  0.0223898089473182  0.00026567592401792   0.0263822433997298   0.0019220082044499   0.0246777830780417   0.0120858528372162
  0.0225017579920548 0.000267001896008465    0.022817504870126  0.00180347420096037   0.0248543853981148   0.0117838203593855
  0.0226142667820151  0.00026833459461648    0.025951185413751  0.00189681459178246     0.02502527453758   0.0114902118862621
  0.0227273381159251 0.000269674049834422   0.0246728974975545  0.00176793508353996   0.0251871543103357   0.0112047572433251
  0.0228409748065048 0.000271020291933065   0.0236006004182077  0.00173013166517246   0.0253369504328624   0.0109271964243197
  0.0229551796805373 0.000272373351458647   0.0267211590245579  0.00183939323421941   0.0254718120652255   0.0106572791398492
    0.02306995557894 0.000273733259230128    0.023914433825432  0.00169593230119434   0.0255891127916097    0.010394764389422
  0.0231853053568347 0.000275100046336567   0.0253487294796591  0.00174828672016024   0.0256864510681609   0.0101394200555467
  0.0233012318836188 0.000276473744134605   0.0247576522685573  0.00171153377477087   0.0257616501633495  0.00989102251856499
  0.0234177380430369 0.000277854384246066   0.0246295364340534  0.00171145796958513   0.0258127576132742  0.00964935629100062
  0.0235348267332521 0.000279241998555655   0.0268258867641623  0.00175222473493629    0.025838044211371  0.00941421367028358
  0.0236525008669184 0.000280636619208762   0.0258670028875381  0.00170910714743978   0.0258360025489234  0.00918539440878594
   0.023770763371253 0.000282038278609364   0.0250784684375539  0.00165940212518814   0.0258053451196544  0.00896270540017424
  0.0238896171881092 0.000283447009418026   0.0270037172357404  0.00172100529406127   0.0257450019985657  0.00874596038114929
  0.0240090652740498 0.000284862844549997   0.0252837953896709  0.00166557347774099   0.0256541181021356  0.00853497964770393
    0.02412911060042  0.00028628581717339    0.022825051789931  0.00159663012104495   0.0255320500340416  0.00832958978508488
  0.0242497561534221 0.000287715960707466   0.0235821014218231  0.00160002084784789   0.0253783625177916  0.00812962341069721
  0.0243710049341892 0.000289153308820985   0.0260513423590344  0.00164691396615324   0.0251928244150808  0.00793491892923729
  0.0244928599588602 0.000290597895430659   0.0233765563613052  0.00160665752836139   0.0249754043263788  0.00774532029938544
  0.0246153242586545 0.000292049754699675    0.021974851851306  0.00165542633196545   0.0247262657682553  0.00756067681143048
  0.0247384008799477 0.000293508921036302   0.0239514062180587  0.00160724603019306   0.0244457619203017  0.00738084287523743
  0.0248620928843475 0.000294975429092575   0.0240213752791844  0.00154813597795902   0.0241344299332552  0.00720567781800538
  0.0249864033487692 0.000296449313763055   0.0241970801537264  0.00151392079477389   0.0237929847891089  0.00703504569129617
   0.025111335365513 0.000297930610183657   0.0231765231459128  0.00147890575097279   0.0234223127036478  0.00686881508684569
  0.0252368920423406 0.000299419353730558   0.0234677164747675  0.00147154797104039   0.0230234640620003  0.00670685896069895
  0.0253630765025523 0.000300915580019163   0.0222547036577238  0.00141771081557677   0.0225976458784821   0.0065490544652369
  0.0254898918850651 0.000302419324903146   0.0208849045410427  0.00142395478974091   0.0221462137732487  0.00639528278868879
  0.0256173413444904 0.000303930624473556   0.0201592062036845  0.00133665144600686    0.021670663460077  0.00624542900174727
  0.0257454280512128 0.000305449515057977   0.0190307690105647  0.00130167568654856   0.0211726217419911  0.00609938191092572
  0.0258741551914689 0.000306976033219766   0.0177720412442816  0.00125449207675983   0.0206538370144118  0.00595703391831805
  0.0260035259674262 0.000308510215757335   0.0188873970070538  0.00126170460641737   0.0201161692790575  0.00581828088744058
  0.0261335435972634   0.0003100520997035   0.0201815692144121  0.00129150549683496   0.0195615796759305  0.00568302201485375
  0.0262642113152497 0.000311601722324884   0.0197498541654381  0.00130689490257169   0.0189921195453582  0.00555115970727839
  0.0263955323718259 0.000313159121121374   0.0169799047147966  0.00118605306900694   0.0184099190371967  0.00542259946393742
  0.0265275100336851 0.000314724333825638   0.0183683204893939  0.00123282146381949    0.017817175289889  0.00529724976386834
  0.0266601475838535 0.000316297398402683   0.0153527490287837  0.00112637824185913    0.017216140208043  0.00517502195796654
  0.0267934483217727 0.000317878353049474   0.0157951357005008  0.00122420263832674   0.0166091078734917  0.00505583016553194
  0.0269274155633816 0.000319467236194595   0.0155766376742404   0.0011932328806231   0.0159984016313249  0.00493959117510423
  0.0270620526411985 0.000321064086497963   0.0157868641932573  0.00110758254309627   0.0153863608990632  0.00482622434938351
  0.0271973629044045 0.000322668942850589   0.0143599944485118  0.00104976097416484   0.0147753277538562  0.00471565153404389
  0.0273333497189265 0.000324281844374373    0.013941405949085  0.00101927158084226     0.01416763335924  0.00460779697025797
  0.0274700164675212 0.000325902830421963   0.0169247886831674  0.00111135876984474   0.0135655842994447  0.00450258721075973
  0.0276073665498588 0.000327531940576638   0.0125109581823734 0.000965274132776041   0.0129714488953905  0.00439995103928239
   0.027745403382608 0.000329169214652246   0.0115313600633965 0.000915052188479806   0.0123874435822154  0.00429981939321636
  0.0278841303995211 0.000330814692693172   0.0120619272177076 0.000942045242074196   0.0118157194333149  0.00420212528934043
  0.0280235510515187 0.000332468414974357  0.00967639781519743 0.000843159324289205    0.011258348920316  0.00410680375248693
  0.0281636688067763 0.000334130422001345   0.0102131729414323 0.000852682179414712   0.0107173130020294  0.00401379174700863
  0.0283044871508101 0.000335800754510373  0.00959678481219134 0.000839203048824043   0.0101944886381182  0.00392302811092201
  0.0284460095865642 0.000337479453468496   0.0093922279508422 0.000828078093176996  0.00969163682487875  0.00383445349260781
   0.028588239634497 0.000339166560073751   0.0101509323000424 0.000852877767725223  0.00921039125106111  0.00374801028995569
  0.0287311808326695  0.00034086211575535  0.00800117075292546 0.000760454981666021  0.00875224767099409   0.0036636425918456
  0.0288748367368328 0.000342566162173908  0.00778451047882655 0.000728084088133933  0.00831855409036211   0.0035812961218637
   0.029019210920517 0.000344278741221707  0.00782842359725413 0.000725880964662942   0.0079105018567826  0.00350091818415575
  0.0291643069751196 0.000345999895022991  0.00873124411118796 0.000761864164983832  0.00752911774283684  0.00342245761132556
  0.0293101285099952 0.000347729665934291  0.00894080581117724 0.000774277278371778  0.00717525710343395   0.0033458647142908
  0.0294566791525452 0.000349468096544776  0.00672351587719191 0.000684190789865248  0.00684959818237227   0.0032710912340125
  0.0296039625483079 0.000351215229676646  0.00564431416768653 0.000604402049746337  0.00655263763477078  0.00319809029501864
  0.0297519823610494  0.00035297110838554  0.00634990746407317 0.000656220183076437  0.00628468732276158  0.00312681636064624
  0.0299007422728547 0.000354735775960981   0.0069126039983096 0.000682332559661697   0.0060458724315745  0.00305722518992956
  0.0300502459842189 0.000356509275926842  0.00616847330429048 0.000644654068695325  0.00583613094203539  0.00298927379606599
    0.03020049721414  0.00035829165204185  0.00617843984931146 0.000638531475451642  0.00565521448368983   0.0029229204063938
  0.0303514997002107 0.000360082948300099   0.0057575693726619 0.000606204410364104  0.00550269058041575  0.00285812442381956
  0.0305032571987118 0.000361883208931603  0.00549872533818532 0.000601319385677262  0.00537794628767586  0.00279484638963563
  0.0306557734847053 0.000363692478402871  0.00609711204044399 0.000640691047182243  0.00528019320766114  0.00273304794767081
  0.0308090523521288 0.000365510801417498   0.0059346190451161 0.000634955092791349  0.00520847385567557  0.00267269180972024
  0.0309630976138895 0.000367338222916787  0.00496429240185528 0.000554245503100668  0.00516166933838604  0.00261374172220259
  0.0311179131019589 0.000369174788080398  0.00574465154459268 0.000628671460145549  0.00513850829218679  0.00255616243399536
  0.0312735026674687 0.000371020542327007  0.00504833962139133 0.000553411446541958   0.0051375770180668  0.00249991966540118
