# intensity: 0.85410971285087
# background: 0
#           Q (1/A)             dQ (1/A)                    R                   dR               theory              fresnel
  0.0143638509998554 0.000172031930765218    0.514747094849025   0.0211688902856665    0.481996286004233    0.240902225385649
  0.0144356702548547 0.000172827446285652    0.493324689913153   0.0199813954184591    0.475614778731717    0.234933626525319
   0.014507848606129 0.000173629077868902    0.491977373516025   0.0204969401963127    0.467729640449107    0.227709616551224
  0.0145803878491596 0.000174436789531023    0.512586833840673   0.0201622478659906    0.458269747422289    0.219252517956415
  0.0146532897884054 0.000175250547027412    0.487146374481502   0.0198142479106114    0.447377047598385    0.209791851683372
  0.0147265562373474 0.000176070317812668    0.435994200814969   0.0176606311678689    0.435417882276793    0.199750006304482
  0.0148001890185342 0.000176896071001147    0.442566960019873   0.0180257599653233    0.422879262201415    0.189622030804331
  0.0148741899636268  0.00017772777732824    0.430489327223378   0.0174903619755383    0.410205970702651    0.179818039477571
   0.014948560913445 0.000178565409112371    0.398080963355647   0.0162802072910374    0.397692012557317    0.170575856168986
  0.0150233037180122 0.000179408940217714    0.386156576204219   0.0158858863842402    0.385475541987003    0.161975930612079
  0.0150984202366022 0.000180258346017645    0.382413500195384   0.0157108234490202    0.373593755160464    0.154005592049611
  0.0151739123377852 0.000181113603358918    0.386019262972065   0.0154367156125229    0.362035396970606    0.146613046069862
  0.0152497818994742 0.000181974690526568    0.359049122802545    0.015002869655636    0.350782948888244    0.139745797382177
  0.0153260308089715 0.000182841587209551    0.374932018563042   0.0155346427200418    0.339811075907657    0.133349526986639
  0.0154026609630164 0.000183714274467095    0.323400531134931   0.0141416691545166    0.329098606383346    0.127377572389176
  0.0154796742678315 0.000184592734695785    0.324314423801753   0.0137034719921261    0.318627837256281    0.121789550955343
  0.0155570726391706  0.00018547695159736    0.297609454208258   0.0129461377918998    0.308383983490861    0.116550283298775
  0.0156348580023665 0.000186366910147227    0.301581031792376   0.0133145570559121    0.298354735473243    0.111628940315119
  0.0157130322923783 0.000187262596563677    0.304424356090304   0.0130878553458761    0.288529898456651    0.106998359586638
  0.0157915974538402  0.00018816399827781     0.30865575225642   0.0131746064815759    0.278901095181917    0.102634491863621
  0.0158705554411094 0.000189071103904147    0.269098731595191   0.0120842983934343    0.269461517707023   0.0985159487003398
   0.015949908218315 0.000189983903211934    0.262539500056861   0.0118055851904283    0.260205717962838   0.0946236296420732
  0.0160296577594065 0.000190902387097123     0.26408246757391   0.0115661746385756    0.251129429069058   0.0909404126123826
  0.0161098060482036 0.000191826547555024    0.236154084152963   0.0108654567996281    0.242229411291244   0.0874508949770187
  0.0161903550784446 0.000192756377653618    0.269313929015573    0.011448404639409    0.233503317894551   0.0841411755878391
  0.0162713068538368 0.000193691871507524    0.238067276421613   0.0106738097892936    0.224949577186406   0.0809986702242684
   0.016352663388106 0.000194633024252608    0.206937435824748  0.00974426409623824    0.216567287831668   0.0780119544489223
  0.0164344267050465 0.000195579832021225    0.198847335246136  0.00955686157353241    0.208356125134375   0.0751706291161138
  0.0165165988385717 0.000196532291918089    0.218778870468399   0.0097818776499342     0.20031625645641   0.0724652047149439
  0.0165991818327646 0.000197490401996747    0.201977411017515   0.0091922040823017    0.192448264318114   0.0698870014627469
  0.0166821777419284 0.000198454161236664    0.194381344174014  0.00907722237033155    0.184753076023426   0.0674280626408245
  0.0167655886306381   0.0001994235695209    0.166545583292972  0.00817236021686564    0.177231898890033   0.0650810791200915
  0.0168494165737912 0.000200398627614361    0.163619180031721  0.00803795629629808    0.169886160356488   0.0628393233872541
  0.0169336636566602 0.000201379337142634    0.165295534417603  0.00802529258297648    0.162717452393151   0.0606965916732454
  0.0170183319749435 0.000202365700571368    0.145744173674381  0.00739225411030509    0.155727479769484   0.0586471530205568
  0.0171034236348182 0.000203357721186217    0.158308619842405  0.00783030321872996    0.148918011832333   0.0566857043167991
  0.0171889407529923 0.000204355403073312      0.1575041465018  0.00766327078578989    0.142290837532766   0.0548073304775053
  0.0172748854567573 0.000205358751100274    0.137706435675464  0.00707933034081141    0.135847723506015   0.0530074690889197
   0.017361259884041 0.000206367770897726    0.136185399326472  0.00701025857479074    0.129590375062884   0.0512818789268848
  0.0174480661834612 0.000207382468841329    0.141840689909199  0.00722965848991608    0.123520399993554   0.0496266118552257
  0.0175353065143786 0.000208402852034307    0.121199946043607  0.00629407572214895    0.117639275117803   0.0480379876797014
  0.0176229830469504 0.000209428928290451    0.108808800459646  0.00596635366810202    0.111948315540601   0.0465125715943232
  0.0177110979621852 0.000210460706117614    0.114475954818164  0.00607102339904462    0.106448646589915   0.0450471539078236
  0.0177996534519961 0.000211498194701653    0.104381917068151  0.00573288248641601    0.101141178425433   0.0436387317810049
  0.0178886517192561 0.000212541403890836    0.100279060204296  0.00564357073428874   0.0960265833134833   0.0422844927420222
  0.0179780949778524 0.000213590344180692   0.0942880905365353  0.00533589096996698    0.091105275565521    0.040981799777473
  0.0180679854527416  0.00021464502669929   0.0916958057951495  0.00534541163991632   0.0863773941358364   0.0397281778234205
  0.0181583253800053 0.000215705463192948   0.0862717453496003  0.00500389391887873   0.0818427878691316   0.0385213015028925
  0.0182491170069054 0.000216771666012349   0.0671060361402568  0.00449503170502203   0.0775010033809946   0.0373589839756159
  0.0183403625919399 0.000217843648099069   0.0740990614648724  0.00449312116942427   0.0733512755445254   0.0362391667822565
  0.0184320644048996 0.000218921422972497    0.067552399831801   0.0043752740216203   0.0693925205449776   0.0351599105796712
  0.0185242247269241 0.000220005004717135   0.0616435509357065  0.00404899429199147    0.065623331451715   0.0341193866759769
  0.0186168458505587 0.000221094407970285   0.0675421528919068  0.00425505204696308   0.0620419762435298   0.0331158692849022
  0.0187099300798115 0.000222189647910091    0.055772911724826  0.00376013297143978   0.0586463982097953   0.0321477284281497
  0.0188034797302105 0.000223290740243951   0.0590866265082229  0.00384596670306666   0.0554342186364513     0.03121342342256
  0.0188974971288616 0.000224397701197266   0.0481558719103684  0.00350523111993606   0.0524027416727639   0.0303114968959106
  0.0189919846145059  0.00022551054750254   0.0452844471157516  0.00328921915055316   0.0495489612624985   0.0294405692813427
  0.0190869445375784 0.000226629296388809   0.0491771073324243  0.00339689337205754   0.0468695700118364   0.0285993337458085
  0.0191823792602663 0.000227753965571387   0.0416817763507135  0.00313759303346481   0.0443609698563195   0.0277865515126817
  0.0192782911565677 0.000228884573241941   0.0416261658529102  0.00309848588625151   0.0420192843804707    0.027001047542848
  0.0193746826123505 0.000230021138058859   0.0399258853598768  0.00298585776466496   0.0398403726366849    0.026241706542285
  0.0194715560254122  0.00023116367913793   0.0324696970310961  0.00268381742084114   0.0378198443046096   0.0255074692673949
  0.0195689138055393 0.000232312216043308     0.03012245145813    0.002595440101423   0.0359530760285814   0.0247973291022451
   0.019666758374567 0.000233466768778765   0.0387069059265113  0.00287353666516338   0.0342352287688009   0.0241103288844278
  0.0197650921664398 0.000234627357779219    0.028305585504583  0.00244816024793509    0.032661266001771   0.0234455579585288
   0.019863917627272 0.000235794003902532   0.0298744801407613  0.00249526924189823   0.0312259726070569   0.0228021494382214
  0.0199632372154084 0.000236966728421575   0.0331229521247381  0.00257398464291253   0.0299239742805586   0.0221792776598069
  0.0200630534014854  0.00023814555301654   0.0302090509359806   0.0025124645106606   0.0287497573191121   0.0215761558116373
  0.0201633686684928 0.000239330499767513   0.0269788624538328  0.00226939712457059   0.0276976886272227   0.0209920337253001
  0.0202641855118353  0.00024052159114728   0.0263144462718178   0.0022621448914624   0.0267620358039314   0.0204261958157387
  0.0203655064393945 0.000241718850014374   0.0233970426963437   0.0021479395085913   0.0259369871760562   0.0198779591586382
  0.0204673339715915 0.000242922299606353   0.0189732041265462  0.00185830516292973   0.0252166716531753   0.0193466716944546
  0.0205696706414494 0.000244131963533296   0.0239144414115446  0.00205579358196865   0.0245951782895371    0.018831710549399
  0.0206725189946566 0.000245347865771526   0.0229087129727473  0.00200682404441026   0.0240665754484225   0.0183324804645341
  0.0207758815896299 0.000246570030657536   0.0219662110260353  0.00199227904390126   0.0236249294751803   0.0178484123249038
  0.0208797609975781 0.000247798482882127   0.0209423165411528  0.00194803992143959   0.0232643227960279   0.0173789617813034
   0.020984159802566 0.000249033247484744   0.0196621472511499  0.00192516875509868   0.0229788713706038   0.0169236079579225
  0.0210890806015788 0.000250274349848011   0.0216484078887994  0.00191571195908027   0.0227627414370368   0.0164818522396528
  0.0211945260045867 0.000251521815692451   0.0212051751411531  0.00187643980025268   0.0226101654988068   0.0160532171333694
  0.0213004986346096 0.000252775671071392   0.0194043485162823  0.00180695144752556   0.0225154575128127   0.0156372451979523
  0.0214070011277827 0.000254035942366059   0.0201851934222831  0.00181476395586195    0.022473027247724   0.0152334980382404
  0.0215140361334216 0.000255302656280833   0.0193461341622175   0.0017278956096927   0.0224773937907775    0.014841555358491
  0.0216216063140887  0.00025657583983868   0.0225554797047436  0.00189725531796618   0.0225231981896304   0.0144610140712688
  0.0217297143456591 0.000257855520376756   0.0190893077289374  0.00172377078571961   0.0226052152236323   0.0140914874580047
  0.0218383629173874 0.000259141725542159   0.0233244902076704  0.00183538056527832    0.022718364305885   0.0137326043777559
  0.0219475547319744 0.000260434483287849   0.0254468173982743  0.00190782679375056   0.0228577195237004   0.0133840085209642
  0.0220572925056342  0.00026173382186871   0.0214296469053826  0.00172395821245668   0.0230185188305266   0.0130453577052508
  0.0221675789681624  0.00026303976983777   0.0213240464574017  0.00174189998171225   0.0231961724070805    0.012716323210509
  0.0222784168630032 0.000264352356042558   0.0220617558093289  0.00171449603109288   0.0233862702133217   0.0123965891507573
  0.0223898089473182 0.000265671609621602   0.0242249249540584  0.00184499997614713   0.0235845887560328   0.0120858518804052
  0.0225017579920548 0.000266997560001066    0.020043089983345   0.0016806528255137   0.0237870970991722   0.0117838194327496
  0.0226142667820151 0.000268330236891516     0.02432189803934  0.00176111137797256   0.0239899621458588   0.0114902109886832
  0.0227273381159251 0.000269669670284816   0.0255871571716705  0.00184427096725859   0.0241895532218847   0.0112047563737341
  0.0228409748065048 0.000271015890451148   0.0230216018827798  0.00168918714805032   0.0243824459910632   0.0109271955816941
  0.0229551796805373 0.000272368927936158   0.0240281414587788  0.00174795386084651   0.0245654257325629   0.0106572783232105
    0.02306995557894 0.000273728813558211   0.0241476672827589  0.00170387973719078   0.0247354900097007   0.0103947635978337
  0.0231853053568347 0.000275095578405769   0.0252794122932938  0.00175254642048481   0.0248898507585168   0.0101394192881119
  0.0233012318836188 0.000276469253834879    0.024897129791144  0.00171706130842283   0.0250259358228945   0.0098910217744249
  0.0234177380430369 0.000277849871466766    0.028663525065538  0.00181969128095121   0.0251413899610648  0.00964935556933221
  0.0235348267332521 0.000279237463185536   0.0223460088125099  0.00160824971107131   0.0252340753461117  0.00941421297029802
  0.0236525008669184 0.000280632061135978   0.0276095683476353  0.00180205716079196   0.0253020715806211  0.00918539372972692
   0.023770763371253 0.000282033697721468   0.0281944694916177  0.00174437763177546   0.0253436752429507  0.00896270474131641
  0.0238896171881092 0.000283442405601967    0.025335829301529  0.00170945609878743   0.0253573989797957  0.00874595974179678
  0.0240090652740498 0.000284858217692119   0.0278822556594417  0.00176752569912422   0.0253419701568425  0.00853497902718891
    0.02412911060042 0.000286281167159432   0.0241079408272656  0.00160987328798106   0.0252963290763897   0.0083295891827663
  0.0242497561534221 0.000287711287422557   0.0282614386614587  0.00172855099732959   0.0252196267679272  0.00812962282595948
  0.0243710049341892 0.000289148612149645   0.0273600300453964  0.00168618881369232   0.0251112223548605  0.00793491836148917
  0.0244928599588602 0.000290593175256797   0.0263927231515748  0.00171660028309495   0.0249706799978834  0.00774531974805886
  0.0246153242586545 0.000292045010906585   0.0230748661474624  0.00160022709304106   0.0247977654130101  0.00756067627597952
  0.0247384008799477 0.000293504153506664   0.0252411257646269   0.0016496071472959   0.0245924419600068   0.0073808423551373
  0.0248620928843475 0.000294970637708451   0.0250236611857384  0.00155607893821536   0.0243548662949782  0.00720567731275146
  0.0249864033487692 0.000296444498405889    0.026791565637081  0.00157461577322568   0.0240853835791995  0.00703504520040312
   0.025111335365513 0.000297925770734272   0.0256735330244749    0.001554607811826   0.0237845222349953  0.00686881460984659
  0.0252368920423406 0.000299414490069152   0.0259002858083276  0.00154655655220379   0.0234529882385844   0.0067068584971445
  0.0253630765025523  0.00030091069202531    0.024273797005803  0.00148523173652884   0.0230916589393863  0.00654905401469462
  0.0254898918850651 0.000302414412455793    0.022203121427365  0.00140827167647948   0.0227015763953427  0.00639528235074231
  0.0256173413444904 0.000303925687451017   0.0223164484402436  0.00142639608724189   0.0222839402143924  0.00624542857599563
  0.0257454280512128 0.000305444553337939   0.0225625790034353  0.00138516189710217   0.0218400998933619  0.00609938149698271
  0.0258741551914689  0.00030697104667928   0.0233710474103398  0.00144547170276094   0.0213715466472332  0.00595703351581158
  0.0260035259674262 0.000308505204272814   0.0215481265733382  0.00134874606466955   0.0208799047240266   0.0058182804960121
  0.0261335435972634 0.000310047063150719   0.0213303322786538  0.00133696245571686   0.0203669222034042  0.00568302163415764
  0.0262642113152497 0.000311596660578976   0.0197188061672808  0.00127967503592854   0.0198344612805549  0.00555115933698146
  0.0263955323718259 0.000313154034056831   0.0212101862246647  0.00134061596886172   0.0192844880409532  0.00542259910371836
  0.0265275100336851 0.000314719221316303   0.0202055389936547  0.00130321775655516   0.0187190617361736  0.00529724941341728
  0.0266601475838535 0.000316292260321752   0.0190788749627694  0.00128771910609909   0.0181403235760512  0.00517502161698452
  0.0267934483217727  0.00031787318926949   0.0158535361653329  0.00123256651381235   0.0175504850580757   0.0050558298337305
  0.0269274155633816 0.000319462046587449   0.0188023686218816   0.0013159468280984   0.0169518158609227  0.00493959085220499
  0.0270620526411985 0.000321058870934889   0.0162979261074878  0.00111441272805339   0.0163466313354027  0.00482622403511777
  0.0271973629044045 0.000322663701202159   0.0181672872769852   0.0011677698752512   0.0157372796327691   0.0047156512281522
  0.0273333497189265 0.000324276576510502   0.0147796825653068  0.00103779825280252   0.0151261285171698  0.00460779667248981
  0.0274700164675212 0.000325897536211898   0.0138821207958021  0.00101769950107643   0.0145155519159638  0.00450258692087313
  0.0276073665498588  0.00032752661988896   0.0145952841832889  0.00103004381238903   0.0139079162685357   0.0043999507570436
   0.027745403382608 0.000329163867354865   0.0135240202777286 0.000998537887819558   0.0133055667410102  0.00429981911839953
  0.0278841303995211 0.000330809318653326   0.0140990257150778  0.00102687506107125   0.0127108133807677  0.00420212502172733
  0.0280235510515187 0.000332463014058607   0.0135498061309369 0.000976182390681065   0.0121259172907668  0.00410680349186662
  0.0281636688067763 0.000334124994075573   0.0103897560164323 0.000872448002336946   0.0115530769092435  0.00401379149317718
  0.0283044871508101 0.000335795299439779   0.0119588192362275 0.000934248708647774   0.0109944144852656  0.00392302786368226
  0.0284460095865642 0.000337473971117598  0.00958561050489483 0.000835429527400657   0.0104519628447286  0.00383445325176908
   0.028588239634497 0.000339161050306377    0.010101178744761 0.000845356895194651  0.00992765254458105  0.00374801005533358
  0.0287311808326695 0.000340856578434637   0.0119684137159873 0.000913935313809815  0.00942329951522979  0.00366364236326172
  0.0288748367368328 0.000342560597162299  0.00805318394124185  0.00080232276722617  0.00894059329212698  0.00358129589914545
   0.029019210920517 0.000344273148380951  0.00937455218191764 0.000794078107291116  0.00848108593736852  0.00350091796713611
  0.0291643069751196 0.000345994274214134  0.00825349772803291 0.000740227496754979  0.00804618175069684  0.00342245739984288
  0.0293101285099952 0.000347724017017676  0.00793048508511385 0.000729128720870366  0.00763712786654347  0.00334586450818862
  0.0294566791525452 0.000349462419380042  0.00665551624481004 0.000661439528225763  0.00725500582965187  0.00327109103313934
  0.0296039625483079  0.00035120952412272  0.00634614417888175 0.000667641208264131  0.00690072423639541  0.00319809009922783
  0.0297519823610494 0.000352965374300636   0.0059303285161692  0.00062092315186178   0.0065750125221748  0.00312681616979574
  0.0299007422728547 0.000354730013202599  0.00584676610207292 0.000635778035912847  0.00627841596730527   0.0030572250038818
  0.0300502459842189 0.000356503484351762  0.00603223505925234 0.000618185216575426  0.00601129198466237  0.00298927361468771
    0.03020049721414 0.000358285831506128  0.00611796748141366 0.000635687685923357  0.00577380774215511  0.00292292022955589
  0.0303514997002107 0.000360077098659066  0.00392632033600085 0.000540323206098954  0.00556593916196309  0.00285812425139692
  0.0305032571987118 0.000361877330039862  0.00396060738263256 0.000521611911891787  0.00538747132655608  0.00279484622150702
  0.0306557734847053  0.00036368657011429  0.00508663443644071 0.000568042985088098  0.00523800030897465  0.00273304778371872
  0.0308090523521288 0.000365504863585209  0.00487921950351331  0.00055181068134143  0.00511693643186487  0.00267269164983078
  0.0309630976138895 0.000367332255393185  0.00415455694168028 0.000506870432892887   0.0050235089465114  0.00261374156626532
  0.0311179131019589 0.000369168790717132  0.00455521153487914 0.000545725699224965  0.00495677210979247  0.00255616228190321
  0.0312735026674687  0.00037101451497498  0.00529823591279765 0.000567289217211686  0.00491561262377241  0.00249991951705032
