#      z (A) rho (1e-6/A2) irho (1e-6/A2)
-59.49190670   5.85415562   0.00000000
-59.39190670   5.85411842   0.00000000
-59.29190670   5.85408065   0.00000000
-59.19190670   5.85404231   0.00000000
-59.09190670   5.85400338   0.00000000
-58.99190670   5.85396387   0.00000000
-58.89190670   5.85392375   0.00000000
-58.79190670   5.85388304   0.00000000
-58.69190670   5.85384171   0.00000000
-58.59190670   5.85379976   0.00000000
-58.49190670   5.85375718   0.00000000
-58.39190670   5.85371396   0.00000000
-58.29190670   5.85367009   0.00000000
-58.19190670   5.85362557   0.00000000
-58.09190670   5.85358039   0.00000000
-57.99190670   5.85353453   0.00000000
-57.89190670   5.85348799   0.00000000
-57.79190670   5.85344077   0.00000000
-57.69190670   5.85339284   0.00000000
-57.59190670   5.85334420   0.00000000
-57.49190670   5.85329485   0.00000000
-57.39190670   5.85324477   0.00000000
-57.29190670   5.85319396   0.00000000
-57.19190670   5.85314239   0.00000000
-57.09190670   5.85309008   0.00000000
-56.99190670   5.85303700   0.00000000
-56.89190670   5.85298314   0.00000000
-56.79190670   5.85292850   0.00000000
-56.69190670   5.85287306   0.00000000
-56.59190670   5.85281682   0.00000000
-56.49190670   5.85275977   0.00000000
-56.39190670   5.85270189   0.00000000
-56.29190670   5.85264317   0.00000000
-56.19190670   5.85258361   0.00000000
-56.09190670   5.85252319   0.00000000
-55.99190670   5.85246190   0.00000000
-55.89190670   5.85239973   0.00000000
-55.79190670   5.85233667   0.00000000
-55.69190670   5.85227272   0.00000000
-55.59190670   5.85220785   0.00000000
-55.49190670   5.85214205   0.00000000
-55.39190670   5.85207532   0.00000000
-55.29190670   5.85200765   0.00000000
-55.19190670   5.85193902   0.00000000
-55.09190670   5.85186941   0.00000000
-54.99190670   5.85179883   0.00000000
-54.89190670   5.85172725   0.00000000
-54.79190670   5.85165467   0.00000000
-54.69190670   5.85158107   0.00000000
-54.59190670   5.85150643   0.00000000
-54.49190670   5.85143076   0.00000000
-54.39190670   5.85135402   0.00000000
-54.29190670   5.85127622   0.00000000
-54.19190670   5.85119734   0.00000000
-54.09190670   5.85111737   0.00000000
-53.99190670   5.85103628   0.00000000
-53.89190670   5.85095408   0.00000000
-53.79190670   5.85087074   0.00000000
-53.69190670   5.85078625   0.00000000
-53.59190670   5.85070061   0.00000000
-53.49190670   5.85061379   0.00000000
-53.39190670   5.85052577   0.00000000
-53.29190670   5.85043656   0.00000000
-53.19190670   5.85034613   0.00000000
-53.09190670   5.85025447   0.00000000
-52.99190670   5.85016156   0.00000000
-52.89190670   5.85006739   0.00000000
-52.79190670   5.84997195   0.00000000
-52.69190670   5.84987522   0.00000000
-52.59190670   5.84977718   0.00000000
-52.49190670   5.84967783   0.00000000
-52.39190670   5.84957714   0.00000000
-52.29190670   5.84947510   0.00000000
-52.19190670   5.84937169   0.00000000
-52.09190670   5.84926690   0.00000000
-51.99190670   5.84916072   0.00000000
-51.89190670   5.84905312   0.00000000
-51.79190670   5.84894409   0.00000000
-51.69190670   5.84883362   0.00000000
-51.59190670   5.84872169   0.00000000
-51.49190670   5.84860828   0.00000000
-51.39190670   5.84849338   0.00000000
-51.29190670   5.84837696   0.00000000
-51.19190670   5.84825902   0.00000000
-51.09190670   5.84813953   0.00000000
-50.99190670   5.84801848   0.00000000
-50.89190670   5.84789585   0.00000000
-50.79190670   5.84777162   0.00000000
-50.69190670   5.84764578   0.00000000
-50.59190670   5.84751831   0.00000000
-50.49190670   5.84738919   0.00000000
-50.39190670   5.84725840   0.00000000
-50.29190670   5.84712592   0.00000000
-50.19190670   5.84699174   0.00000000
-50.09190670   5.84685584   0.00000000
-49.99190670   5.84671820   0.00000000
-49.89190670   5.84657879   0.00000000
-49.79190670   5.84643761   0.00000000
-49.69190670   5.84629462   0.00000000
-49.59190670   5.84614982   0.00000000
-49.49190670   5.84600319   0.00000000
-49.39190670   5.84585470   0.00000000
-49.29190670   5.84570433   0.00000000
-49.19190670   5.84555206   0.00000000
-49.09190670   5.84539788   0.00000000
-48.99190670   5.84524177   0.00000000
-48.89190670   5.84508370   0.00000000
-48.79190670   5.84492365   0.00000000
-48.69190670   5.84476160   0.00000000
-48.59190670   5.84459754   0.00000000
-48.49190670   5.84443144   0.00000000
-48.39190670   5.84426328   0.00000000
-48.29190670   5.84409304   0.00000000
-48.19190670   5.84392069   0.00000000
-48.09190670   5.84374622   0.00000000
-47.99190670   5.84356961   0.00000000
-47.89190670   5.84339083   0.00000000
-47.79190670   5.84320986   0.00000000
-47.69190670   5.84302668   0.00000000
-47.59190670   5.84284127   0.00000000
-47.49190670   5.84265360   0.00000000
-47.39190670   5.84246365   0.00000000
-47.29190670   5.84227140   0.00000000
-47.19190670   5.84207683   0.00000000
-47.09190670   5.84187990   0.00000000
-46.99190670   5.84168061   0.00000000
-46.89190670   5.84147893   0.00000000
-46.79190670   5.84127482   0.00000000
-46.69190670   5.84106828   0.00000000
-46.59190670   5.84085927   0.00000000
-46.49190670   5.84064778   0.00000000
-46.39190670   5.84043376   0.00000000
-46.29190670   5.84021722   0.00000000
-46.19190670   5.83999811   0.00000000
-46.09190670   5.83977641   0.00000000
-45.99190670   5.83955210   0.00000000
-45.89190670   5.83932516   0.00000000
-45.79190670   5.83909556   0.00000000
-45.69190670   5.83886327   0.00000000
-45.59190670   5.83862826   0.00000000
-45.49190670   5.83839052   0.00000000
-45.39190670   5.83815002   0.00000000
-45.29190670   5.83790673   0.00000000
-45.19190670   5.83766062   0.00000000
-45.09190670   5.83741167   0.00000000
-44.99190670   5.83715985   0.00000000
-44.89190670   5.83690514   0.00000000
-44.79190670   5.83664751   0.00000000
-44.69190670   5.83638693   0.00000000
-44.59190670   5.83612338   0.00000000
-44.49190670   5.83585683   0.00000000
-44.39190670   5.83558724   0.00000000
-44.29190670   5.83531460   0.00000000
-44.19190670   5.83503888   0.00000000
-44.09190670   5.83476004   0.00000000
-43.99190670   5.83447807   0.00000000
-43.89190670   5.83419293   0.00000000
-43.79190670   5.83390459   0.00000000
-43.69190670   5.83361303   0.00000000
-43.59190670   5.83331822   0.00000000
-43.49190670   5.83302012   0.00000000
-43.39190670   5.83271872   0.00000000
-43.29190670   5.83241397   0.00000000
-43.19190670   5.83210586   0.00000000
-43.09190670   5.83179436   0.00000000
-42.99190670   5.83147942   0.00000000
-42.89190670   5.83116103   0.00000000
-42.79190670   5.83083916   0.00000000
-42.69190670   5.83051377   0.00000000
-42.59190670   5.83018483   0.00000000
-42.49190670   5.82985233   0.00000000
-42.39190670   5.82951621   0.00000000
-42.29190670   5.82917646   0.00000000
-42.19190670   5.82883305   0.00000000
-42.09190670   5.82848593   0.00000000
-41.99190670   5.82813509   0.00000000
-41.89190670   5.82778050   0.00000000
-41.79190670   5.82742211   0.00000000
-41.69190670   5.82705990   0.00000000
-41.59190670   5.82669384   0.00000000
-41.49190670   5.82632390   0.00000000
-41.39190670   5.82595005   0.00000000
-41.29190670   5.82557224   0.00000000
-41.19190670   5.82519046   0.00000000
-41.09190670   5.82480467   0.00000000
-40.99190670   5.82441484   0.00000000
-40.89190670   5.82402094   0.00000000
-40.79190670   5.82362293   0.00000000
-40.69190670   5.82322078   0.00000000
-40.59190670   5.82281446   0.00000000
-40.49190670   5.82240393   0.00000000
-40.39190670   5.82198917   0.00000000
-40.29190670   5.82157014   0.00000000
-40.19190670   5.82114681   0.00000000
-40.09190670   5.82071914   0.00000000
-39.99190670   5.82028711   0.00000000
-39.89190670   5.81985067   0.00000000
-39.79190670   5.81940980   0.00000000
-39.69190670   5.81896445   0.00000000
-39.59190670   5.81851461   0.00000000
-39.49190670   5.81806023   0.00000000
-39.39190670   5.81760128   0.00000000
-39.29190670   5.81713773   0.00000000
-39.19190670   5.81666954   0.00000000
-39.09190670   5.81619668   0.00000000
-38.99190670   5.81571911   0.00000000
-38.89190670   5.81523681   0.00000000
-38.79190670   5.81474972   0.00000000
-38.69190670   5.81425783   0.00000000
-38.59190670   5.81376110   0.00000000
-38.49190670   5.81325949   0.00000000
-38.39190670   5.81275297   0.00000000
-38.29190670   5.81224149   0.00000000
-38.19190670   5.81172504   0.00000000
-38.09190670   5.81120357   0.00000000
-37.99190670   5.81067705   0.00000000
-37.89190670   5.81014544   0.00000000
-37.79190670   5.80960871   0.00000000
-37.69190670   5.80906682   0.00000000
-37.59190670   5.80851974   0.00000000
-37.49190670   5.80796743   0.00000000
-37.39190670   5.80740986   0.00000000
-37.29190670   5.80684699   0.00000000
-37.19190670   5.80627879   0.00000000
-37.09190670   5.80570521   0.00000000
-36.99190670   5.80512624   0.00000000
-36.89190670   5.80454182   0.00000000
-36.79190670   5.80395193   0.00000000
-36.69190670   5.80335652   0.00000000
-36.59190670   5.80275557   0.00000000
-36.49190670   5.80214903   0.00000000
-36.39190670   5.80153688   0.00000000
-36.29190670   5.80091907   0.00000000
-36.19190670   5.80029558   0.00000000
-36.09190670   5.79966635   0.00000000
-35.99190670   5.79903137   0.00000000
-35.89190670   5.79839058   0.00000000
-35.79190670   5.79774397   0.00000000
-35.69190670   5.79709148   0.00000000
-35.59190670   5.79643309   0.00000000
-35.49190670   5.79576876   0.00000000
-35.39190670   5.79509845   0.00000000
-35.29190670   5.79442213   0.00000000
-35.19190670   5.79373977   0.00000000
-35.09190670   5.79305131   0.00000000
-34.99190670   5.79235674   0.00000000
-34.89190670   5.79165601   0.00000000
-34.79190670   5.79094910   0.00000000
-34.69190670   5.79023595   0.00000000
-34.59190670   5.78951654   0.00000000
-34.49190670   5.78879084   0.00000000
-34.39190670   5.78805880   0.00000000
-34.29190670   5.78732039   0.00000000
-34.19190670   5.78657557   0.00000000
-34.09190670   5.78582432   0.00000000
-33.99190670   5.78506659   0.00000000
-33.89190670   5.78430235   0.00000000
-33.79190670   5.78353156   0.00000000
-33.69190670   5.78275420   0.00000000
-33.59190670   5.78197021   0.00000000
-33.49190670   5.78117957   0.00000000
-33.39190670   5.78038225   0.00000000
-33.29190670   5.77957821   0.00000000
-33.19190670   5.77876741   0.00000000
-33.09190670   5.77794981   0.00000000
-32.99190670   5.77712540   0.00000000
-32.89190670   5.77629412   0.00000000
-32.79190670   5.77545595   0.00000000
-32.69190670   5.77461085   0.00000000
-32.59190670   5.77375878   0.00000000
-32.49190670   5.77289972   0.00000000
-32.39190670   5.77203363   0.00000000
-32.29190670   5.77116047   0.00000000
-32.19190670   5.77028022   0.00000000
-32.09190670   5.76939283   0.00000000
-31.99190670   5.76849827   0.00000000
-31.89190670   5.76759652   0.00000000
-31.79190670   5.76668754   0.00000000
-31.69190670   5.76577129   0.00000000
-31.59190670   5.76484774   0.00000000
-31.49190670   5.76391686   0.00000000
-31.39190670   5.76297862   0.00000000
-31.29190670   5.76203299   0.00000000
-31.19190670   5.76107992   0.00000000
-31.09190670   5.76011940   0.00000000
-30.99190670   5.75915139   0.00000000
-30.89190670   5.75817585   0.00000000
-30.79190670   5.75719276   0.00000000
-30.69190670   5.75620209   0.00000000
-30.59190670   5.75520380   0.00000000
-30.49190670   5.75419786   0.00000000
-30.39190670   5.75318424   0.00000000
-30.29190670   5.75216292   0.00000000
-30.19190670   5.75113386   0.00000000
-30.09190670   5.75009704   0.00000000
-29.99190670   5.74905241   0.00000000
-29.89190670   5.74799996   0.00000000
-29.79190670   5.74693966   0.00000000
-29.69190670   5.74587147   0.00000000
-29.59190670   5.74479537   0.00000000
-29.49190670   5.74371133   0.00000000
-29.39190670   5.74261932   0.00000000
-29.29190670   5.74151931   0.00000000
-29.19190670   5.74041128   0.00000000
-29.09190670   5.73929520   0.00000000
-28.99190670   5.73817104   0.00000000
-28.89190670   5.73703877   0.00000000
-28.79190670   5.73589838   0.00000000
-28.69190670   5.73474983   0.00000000
-28.59190670   5.73359309   0.00000000
-28.49190670   5.73242815   0.00000000
-28.39190670   5.73125498   0.00000000
-28.29190670   5.73007355   0.00000000
-28.19190670   5.72888384   0.00000000
-28.09190670   5.72768583   0.00000000
-27.99190670   5.72647949   0.00000000
-27.89190670   5.72526479   0.00000000
-27.79190670   5.72404173   0.00000000
-27.69190670   5.72281026   0.00000000
-27.59190670   5.72157038   0.00000000
-27.49190670   5.72032206   0.00000000
-27.39190670   5.71906528   0.00000000
-27.29190670   5.71780001   0.00000000
-27.19190670   5.71652624   0.00000000
-27.09190670   5.71524395   0.00000000
-26.99190670   5.71395312   0.00000000
-26.89190670   5.71265373   0.00000000
-26.79190670   5.71134576   0.00000000
-26.69190670   5.71002919   0.00000000
-26.59190670   5.70870401   0.00000000
-26.49190670   5.70737019   0.00000000
-26.39190670   5.70602772   0.00000000
-26.29190670   5.70467659   0.00000000
-26.19190670   5.70331677   0.00000000
-26.09190670   5.70194826   0.00000000
-25.99190670   5.70057103   0.00000000
-25.89190670   5.69918508   0.00000000
-25.79190670   5.69779039   0.00000000
-25.69190670   5.69638694   0.00000000
-25.59190670   5.69497473   0.00000000
-25.49190670   5.69355374   0.00000000
-25.39190670   5.69212395   0.00000000
-25.29190670   5.69068537   0.00000000
-25.19190670   5.68923797   0.00000000
-25.09190670   5.68778174   0.00000000
-24.99190670   5.68631669   0.00000000
-24.89190670   5.68484279   0.00000000
-24.79190670   5.68336004   0.00000000
-24.69190670   5.68186843   0.00000000
-24.59190670   5.68036796   0.00000000
-24.49190670   5.67885861   0.00000000
-24.39190670   5.67734038   0.00000000
-24.29190670   5.67581327   0.00000000
-24.19190670   5.67427728   0.00000000
-24.09190670   5.67273238   0.00000000
-23.99190670   5.67117859   0.00000000
-23.89190670   5.66961590   0.00000000
-23.79190670   5.66804431   0.00000000
-23.69190670   5.66646381   0.00000000
-23.59190670   5.66487441   0.00000000
-23.49190670   5.66327610   0.00000000
-23.39190670   5.66166889   0.00000000
-23.29190670   5.66005277   0.00000000
-23.19190670   5.65842774   0.00000000
-23.09190670   5.65679382   0.00000000
-22.99190670   5.65515100   0.00000000
-22.89190670   5.65349929   0.00000000
-22.79190670   5.65183868   0.00000000
-22.69190670   5.65016919   0.00000000
-22.59190670   5.64849083   0.00000000
-22.49190670   5.64680359   0.00000000
-22.39190670   5.64510748   0.00000000
-22.29190670   5.64340253   0.00000000
-22.19190670   5.64168872   0.00000000
-22.09190670   5.63996607   0.00000000
-21.99190670   5.63823460   0.00000000
-21.89190670   5.63649431   0.00000000
-21.79190670   5.63474522   0.00000000
-21.69190670   5.63298734   0.00000000
-21.59190670   5.63122068   0.00000000
-21.49190670   5.62944525   0.00000000
-21.39190670   5.62766108   0.00000000
-21.29190670   5.62586818   0.00000000
-21.19190670   5.62406656   0.00000000
-21.09190670   5.62225624   0.00000000
-20.99190670   5.62043725   0.00000000
-20.89190670   5.61860959   0.00000000
-20.79190670   5.61677330   0.00000000
-20.69190670   5.61492838   0.00000000
-20.59190670   5.61307487   0.00000000
-20.49190670   5.61121279   0.00000000
-20.39190670   5.60934216   0.00000000
-20.29190670   5.60746300   0.00000000
-20.19190670   5.60557535   0.00000000
-20.09190670   5.60367922   0.00000000
-19.99190670   5.60177465   0.00000000
-19.89190670   5.59986165   0.00000000
-19.79190670   5.59794028   0.00000000
-19.69190670   5.59601054   0.00000000
-19.59190670   5.59407247   0.00000000
-19.49190670   5.59212611   0.00000000
-19.39190670   5.59017149   0.00000000
-19.29190670   5.58820864   0.00000000
-19.19190670   5.58623760   0.00000000
-19.09190670   5.58425840   0.00000000
-18.99190670   5.58227108   0.00000000
-18.89190670   5.58027568   0.00000000
-18.79190670   5.57827224   0.00000000
-18.69190670   5.57626079   0.00000000
-18.59190670   5.57424138   0.00000000
-18.49190670   5.57221404   0.00000000
-18.39190670   5.57017883   0.00000000
-18.29190670   5.56813578   0.00000000
-18.19190670   5.56608495   0.00000000
-18.09190670   5.56402637   0.00000000
-17.99190670   5.56196009   0.00000000
-17.89190670   5.55988616   0.00000000
-17.79190670   5.55780464   0.00000000
-17.69190670   5.55571556   0.00000000
-17.59190670   5.55361898   0.00000000
-17.49190670   5.55151496   0.00000000
-17.39190670   5.54940355   0.00000000
-17.29190670   5.54728480   0.00000000
-17.19190670   5.54515876   0.00000000
-17.09190670   5.54302550   0.00000000
-16.99190670   5.54088506   0.00000000
-16.89190670   5.53873752   0.00000000
-16.79190670   5.53658292   0.00000000
-16.69190670   5.53442134   0.00000000
-16.59190670   5.53225283   0.00000000
-16.49190670   5.53007745   0.00000000
-16.39190670   5.52789527   0.00000000
-16.29190670   5.52570636   0.00000000
-16.19190670   5.52351078   0.00000000
-16.09190670   5.52130860   0.00000000
-15.99190670   5.51909989   0.00000000
-15.89190670   5.51688471   0.00000000
-15.79190670   5.51466314   0.00000000
-15.69190670   5.51243526   0.00000000
-15.59190670   5.51020112   0.00000000
-15.49190670   5.50796082   0.00000000
-15.39190670   5.50571442   0.00000000
-15.29190670   5.50346200   0.00000000
-15.19190670   5.50120365   0.00000000
-15.09190670   5.49893943   0.00000000
-14.99190670   5.49666943   0.00000000
-14.89190670   5.49439373   0.00000000
-14.79190670   5.49211241   0.00000000
-14.69190670   5.48982556   0.00000000
-14.59190670   5.48753326   0.00000000
-14.49190670   5.48523560   0.00000000
-14.39190670   5.48293267   0.00000000
-14.29190670   5.48062455   0.00000000
-14.19190670   5.47831133   0.00000000
-14.09190670   5.47599311   0.00000000
-13.99190670   5.47366998   0.00000000
-13.89190670   5.47134202   0.00000000
-13.79190670   5.46900935   0.00000000
-13.69190670   5.46667204   0.00000000
-13.59190670   5.46433020   0.00000000
-13.49190670   5.46198393   0.00000000
-13.39190670   5.45963333   0.00000000
-13.29190670   5.45727849   0.00000000
-13.19190670   5.45491952   0.00000000
-13.09190670   5.45255652   0.00000000
-12.99190670   5.45018959   0.00000000
-12.89190670   5.44781885   0.00000000
-12.79190670   5.44544439   0.00000000
-12.69190670   5.44306633   0.00000000
-12.59190670   5.44068478   0.00000000
-12.49190670   5.43829984   0.00000000
-12.39190670   5.43591162   0.00000000
-12.29190670   5.43352025   0.00000000
-12.19190670   5.43112583   0.00000000
-12.09190670   5.42872847   0.00000000
-11.99190670   5.42632830   0.00000000
-11.89190670   5.42392544   0.00000000
-11.79190670   5.42151999   0.00000000
-11.69190670   5.41911208   0.00000000
-11.59190670   5.41670184   0.00000000
-11.49190670   5.41428938   0.00000000
-11.39190670   5.41187482   0.00000000
-11.29190670   5.40945830   0.00000000
-11.19190670   5.40703994   0.00000000
-11.09190670   5.40461986   0.00000000
-10.99190670   5.40219819   0.00000000
-10.89190670   5.39977507   0.00000000
-10.79190670   5.39735062   0.00000000
-10.69190670   5.39492497   0.00000000
-10.59190670   5.39249826   0.00000000
-10.49190670   5.39007063   0.00000000
-10.39190670   5.38764220   0.00000000
-10.29190670   5.38521311   0.00000000
-10.19190670   5.38278351   0.00000000
-10.09190670   5.38035353   0.00000000
 -9.99190670   5.37792330   0.00000000
 -9.89190670   5.37549298   0.00000000
 -9.79190670   5.37306269   0.00000000
 -9.69190670   5.37063260   0.00000000
 -9.59190670   5.36820283   0.00000000
 -9.49190670   5.36577354   0.00000000
 -9.39190670   5.36334487   0.00000000
 -9.29190670   5.36091698   0.00000000
 -9.19190670   5.35849000   0.00000000
 -9.09190670   5.35606408   0.00000000
 -8.99190670   5.35363939   0.00000000
 -8.89190670   5.35121607   0.00000000
 -8.79190670   5.34879427   0.00000000
 -8.69190670   5.34637416   0.00000000
 -8.59190670   5.34395587   0.00000000
 -8.49190670   5.34153957   0.00000000
