#      z (A) rho (1e-6/A2) irho (1e-6/A2)
-74.97054438   5.85416605   0.00000000
-74.87054438   5.85413671   0.00000000
-74.77054438   5.85410702   0.00000000
-74.67054438   5.85407697   0.00000000
-74.57054438   5.85404656   0.00000000
-74.47054438   5.85401578   0.00000000
-74.37054438   5.85398463   0.00000000
-74.27054438   5.85395311   0.00000000
-74.17054438   5.85392122   0.00000000
-74.07054438   5.85388894   0.00000000
-73.97054438   5.85385628   0.00000000
-73.87054438   5.85382322   0.00000000
-73.77054438   5.85378978   0.00000000
-73.67054438   5.85375593   0.00000000
-73.57054438   5.85372169   0.00000000
-73.47054438   5.85368704   0.00000000
-73.37054438   5.85365198   0.00000000
-73.27054438   5.85361651   0.00000000
-73.17054438   5.85358061   0.00000000
-73.07054438   5.85354430   0.00000000
-72.97054438   5.85350755   0.00000000
-72.87054438   5.85347038   0.00000000
-72.77054438   5.85343276   0.00000000
-72.67054438   5.85339471   0.00000000
-72.57054438   5.85335621   0.00000000
-72.47054438   5.85331727   0.00000000
-72.37054438   5.85327786   0.00000000
-72.27054438   5.85323800   0.00000000
-72.17054438   5.85319768   0.00000000
-72.07054438   5.85315688   0.00000000
-71.97054438   5.85311561   0.00000000
-71.87054438   5.85307387   0.00000000
-71.77054438   5.85303164   0.00000000
-71.67054438   5.85298892   0.00000000
-71.57054438   5.85294571   0.00000000
-71.47054438   5.85290200   0.00000000
-71.37054438   5.85285779   0.00000000
-71.27054438   5.85281307   0.00000000
-71.17054438   5.85276784   0.00000000
-71.07054438   5.85272208   0.00000000
-70.97054438   5.85267581   0.00000000
-70.87054438   5.85262900   0.00000000
-70.77054438   5.85258167   0.00000000
-70.67054438   5.85253379   0.00000000
-70.57054438   5.85248536   0.00000000
-70.47054438   5.85243639   0.00000000
-70.37054438   5.85238686   0.00000000
-70.27054438   5.85233677   0.00000000
-70.17054438   5.85228612   0.00000000
-70.07054438   5.85223489   0.00000000
-69.97054438   5.85218308   0.00000000
-69.87054438   5.85213069   0.00000000
-69.77054438   5.85207771   0.00000000
-69.67054438   5.85202413   0.00000000
-69.57054438   5.85196996   0.00000000
-69.47054438   5.85191517   0.00000000
-69.37054438   5.85185978   0.00000000
-69.27054438   5.85180376   0.00000000
-69.17054438   5.85174712   0.00000000
-69.07054438   5.85168985   0.00000000
-68.97054438   5.85163194   0.00000000
-68.87054438   5.85157339   0.00000000
-68.77054438   5.85151419   0.00000000
-68.67054438   5.85145434   0.00000000
-68.57054438   5.85139382   0.00000000
-68.47054438   5.85133264   0.00000000
-68.37054438   5.85127078   0.00000000
-68.27054438   5.85120824   0.00000000
-68.17054438   5.85114501   0.00000000
-68.07054438   5.85108109   0.00000000
-67.97054438   5.85101646   0.00000000
-67.87054438   5.85095113   0.00000000
-67.77054438   5.85088509   0.00000000
-67.67054438   5.85081833   0.00000000
-67.57054438   5.85075084   0.00000000
-67.47054438   5.85068261   0.00000000
-67.37054438   5.85061364   0.00000000
-67.27054438   5.85054393   0.00000000
-67.17054438   5.85047346   0.00000000
-67.07054438   5.85040223   0.00000000
-66.97054438   5.85033023   0.00000000
-66.87054438   5.85025745   0.00000000
-66.77054438   5.85018389   0.00000000
-66.67054438   5.85010954   0.00000000
-66.57054438   5.85003439   0.00000000
-66.47054438   5.84995844   0.00000000
-66.37054438   5.84988167   0.00000000
-66.27054438   5.84980408   0.00000000
-66.17054438   5.84972567   0.00000000
-66.07054438   5.84964642   0.00000000
-65.97054438   5.84956632   0.00000000
-65.87054438   5.84948538   0.00000000
-65.77054438   5.84940358   0.00000000
-65.67054438   5.84932091   0.00000000
-65.57054438   5.84923737   0.00000000
-65.47054438   5.84915295   0.00000000
-65.37054438   5.84906763   0.00000000
-65.27054438   5.84898142   0.00000000
-65.17054438   5.84889431   0.00000000
-65.07054438   5.84880628   0.00000000
-64.97054438   5.84871733   0.00000000
-64.87054438   5.84862744   0.00000000
-64.77054438   5.84853662   0.00000000
-64.67054438   5.84844486   0.00000000
-64.57054438   5.84835213   0.00000000
-64.47054438   5.84825845   0.00000000
-64.37054438   5.84816379   0.00000000
-64.27054438   5.84806815   0.00000000
-64.17054438   5.84797152   0.00000000
-64.07054438   5.84787390   0.00000000
-63.97054438   5.84777527   0.00000000
-63.87054438   5.84767562   0.00000000
-63.77054438   5.84757495   0.00000000
-63.67054438   5.84747324   0.00000000
-63.57054438   5.84737049   0.00000000
-63.47054438   5.84726669   0.00000000
-63.37054438   5.84716184   0.00000000
-63.27054438   5.84705591   0.00000000
-63.17054438   5.84694890   0.00000000
-63.07054438   5.84684081   0.00000000
-62.97054438   5.84673161   0.00000000
-62.87054438   5.84662132   0.00000000
-62.77054438   5.84650990   0.00000000
-62.67054438   5.84639736   0.00000000
-62.57054438   5.84628369   0.00000000
-62.47054438   5.84616887   0.00000000
-62.37054438   5.84605290   0.00000000
-62.27054438   5.84593576   0.00000000
-62.17054438   5.84581745   0.00000000
-62.07054438   5.84569796   0.00000000
-61.97054438   5.84557727   0.00000000
-61.87054438   5.84545538   0.00000000
-61.77054438   5.84533228   0.00000000
-61.67054438   5.84520795   0.00000000
-61.57054438   5.84508239   0.00000000
-61.47054438   5.84495558   0.00000000
-61.37054438   5.84482752   0.00000000
-61.27054438   5.84469820   0.00000000
-61.17054438   5.84456760   0.00000000
-61.07054438   5.84443572   0.00000000
-60.97054438   5.84430254   0.00000000
-60.87054438   5.84416805   0.00000000
-60.77054438   5.84403225   0.00000000
-60.67054438   5.84389512   0.00000000
-60.57054438   5.84375665   0.00000000
-60.47054438   5.84361683   0.00000000
-60.37054438   5.84347566   0.00000000
-60.27054438   5.84333311   0.00000000
-60.17054438   5.84318918   0.00000000
-60.07054438   5.84304385   0.00000000
-59.97054438   5.84289712   0.00000000
-59.87054438   5.84274898   0.00000000
-59.77054438   5.84259941   0.00000000
-59.67054438   5.84244840   0.00000000
-59.57054438   5.84229594   0.00000000
-59.47054438   5.84214202   0.00000000
-59.37054438   5.84198663   0.00000000
-59.27054438   5.84182975   0.00000000
-59.17054438   5.84167138   0.00000000
-59.07054438   5.84151150   0.00000000
-58.97054438   5.84135011   0.00000000
-58.87054438   5.84118718   0.00000000
-58.77054438   5.84102271   0.00000000
-58.67054438   5.84085668   0.00000000
-58.57054438   5.84068909   0.00000000
-58.47054438   5.84051992   0.00000000
-58.37054438   5.84034916   0.00000000
-58.27054438   5.84017679   0.00000000
-58.17054438   5.84000281   0.00000000
-58.07054438   5.83982721   0.00000000
-57.97054438   5.83964996   0.00000000
-57.87054438   5.83947106   0.00000000
-57.77054438   5.83929049   0.00000000
-57.67054438   5.83910825   0.00000000
-57.57054438   5.83892432   0.00000000
-57.47054438   5.83873869   0.00000000
-57.37054438   5.83855133   0.00000000
-57.27054438   5.83836226   0.00000000
-57.17054438   5.83817144   0.00000000
-57.07054438   5.83797886   0.00000000
-56.97054438   5.83778452   0.00000000
-56.87054438   5.83758840   0.00000000
-56.77054438   5.83739049   0.00000000
-56.67054438   5.83719076   0.00000000
-56.57054438   5.83698922   0.00000000
-56.47054438   5.83678585   0.00000000
-56.37054438   5.83658063   0.00000000
-56.27054438   5.83637355   0.00000000
-56.17054438   5.83616460   0.00000000
-56.07054438   5.83595376   0.00000000
-55.97054438   5.83574102   0.00000000
-55.87054438   5.83552636   0.00000000
-55.77054438   5.83530978   0.00000000
-55.67054438   5.83509125   0.00000000
-55.57054438   5.83487077   0.00000000
-55.47054438   5.83464832   0.00000000
-55.37054438   5.83442389   0.00000000
-55.27054438   5.83419746   0.00000000
-55.17054438   5.83396902   0.00000000
-55.07054438   5.83373855   0.00000000
-54.97054438   5.83350604   0.00000000
-54.87054438   5.83327148   0.00000000
-54.77054438   5.83303485   0.00000000
-54.67054438   5.83279614   0.00000000
-54.57054438   5.83255533   0.00000000
-54.47054438   5.83231241   0.00000000
-54.37054438   5.83206736   0.00000000
-54.27054438   5.83182017   0.00000000
-54.17054438   5.83157082   0.00000000
-54.07054438   5.83131931   0.00000000
-53.97054438   5.83106561   0.00000000
-53.87054438   5.83080970   0.00000000
-53.77054438   5.83055159   0.00000000
-53.67054438   5.83029124   0.00000000
-53.57054438   5.83002865   0.00000000
-53.47054438   5.82976380   0.00000000
-53.37054438   5.82949667   0.00000000
-53.27054438   5.82922725   0.00000000
-53.17054438   5.82895553   0.00000000
-53.07054438   5.82868149   0.00000000
-52.97054438   5.82840511   0.00000000
-52.87054438   5.82812638   0.00000000
-52.77054438   5.82784528   0.00000000
-52.67054438   5.82756180   0.00000000
-52.57054438   5.82727592   0.00000000
-52.47054438   5.82698762   0.00000000
-52.37054438   5.82669690   0.00000000
-52.27054438   5.82640373   0.00000000
-52.17054438   5.82610810   0.00000000
-52.07054438   5.82581000   0.00000000
-51.97054438   5.82550940   0.00000000
-51.87054438   5.82520629   0.00000000
-51.77054438   5.82490066   0.00000000
-51.67054438   5.82459248   0.00000000
-51.57054438   5.82428175   0.00000000
-51.47054438   5.82396845   0.00000000
-51.37054438   5.82365256   0.00000000
-51.27054438   5.82333406   0.00000000
-51.17054438   5.82301294   0.00000000
-51.07054438   5.82268919   0.00000000
-50.97054438   5.82236278   0.00000000
-50.87054438   5.82203369   0.00000000
-50.77054438   5.82170193   0.00000000
-50.67054438   5.82136745   0.00000000
-50.57054438   5.82103026   0.00000000
-50.47054438   5.82069033   0.00000000
-50.37054438   5.82034765   0.00000000
-50.27054438   5.82000220   0.00000000
-50.17054438   5.81965396   0.00000000
-50.07054438   5.81930292   0.00000000
-49.97054438   5.81894905   0.00000000
-49.87054438   5.81859235   0.00000000
-49.77054438   5.81823280   0.00000000
-49.67054438   5.81787037   0.00000000
-49.57054438   5.81750506   0.00000000
-49.47054438   5.81713684   0.00000000
-49.37054438   5.81676570   0.00000000
-49.27054438   5.81639163   0.00000000
-49.17054438   5.81601459   0.00000000
-49.07054438   5.81563458   0.00000000
-48.97054438   5.81525158   0.00000000
-48.87054438   5.81486558   0.00000000
-48.77054438   5.81447654   0.00000000
-48.67054438   5.81408447   0.00000000
-48.57054438   5.81368934   0.00000000
-48.47054438   5.81329113   0.00000000
-48.37054438   5.81288982   0.00000000
-48.27054438   5.81248541   0.00000000
-48.17054438   5.81207786   0.00000000
-48.07054438   5.81166717   0.00000000
-47.97054438   5.81125331   0.00000000
-47.87054438   5.81083628   0.00000000
-47.77054438   5.81041604   0.00000000
-47.67054438   5.80999258   0.00000000
-47.57054438   5.80956590   0.00000000
-47.47054438   5.80913596   0.00000000
-47.37054438   5.80870275   0.00000000
-47.27054438   5.80826625   0.00000000
-47.17054438   5.80782645   0.00000000
-47.07054438   5.80738332   0.00000000
-46.97054438   5.80693686   0.00000000
-46.87054438   5.80648703   0.00000000
-46.77054438   5.80603383   0.00000000
-46.67054438   5.80557724   0.00000000
-46.57054438   5.80511723   0.00000000
-46.47054438   5.80465380   0.00000000
-46.37054438   5.80418692   0.00000000
-46.27054438   5.80371657   0.00000000
-46.17054438   5.80324274   0.00000000
-46.07054438   5.80276541   0.00000000
-45.97054438   5.80228456   0.00000000
-45.87054438   5.80180017   0.00000000
-45.77054438   5.80131223   0.00000000
-45.67054438   5.80082071   0.00000000
-45.57054438   5.80032561   0.00000000
-45.47054438   5.79982689   0.00000000
-45.37054438   5.79932455   0.00000000
-45.27054438   5.79881857   0.00000000
-45.17054438   5.79830892   0.00000000
-45.07054438   5.79779560   0.00000000
-44.97054438   5.79727857   0.00000000
-44.87054438   5.79675783   0.00000000
-44.77054438   5.79623335   0.00000000
-44.67054438   5.79570513   0.00000000
-44.57054438   5.79517313   0.00000000
-44.47054438   5.79463734   0.00000000
-44.37054438   5.79409775   0.00000000
-44.27054438   5.79355434   0.00000000
-44.17054438   5.79300708   0.00000000
-44.07054438   5.79245596   0.00000000
-43.97054438   5.79190097   0.00000000
-43.87054438   5.79134208   0.00000000
-43.77054438   5.79077927   0.00000000
-43.67054438   5.79021254   0.00000000
-43.57054438   5.78964186   0.00000000
-43.47054438   5.78906721   0.00000000
-43.37054438   5.78848857   0.00000000
-43.27054438   5.78790593   0.00000000
-43.17054438   5.78731928   0.00000000
-43.07054438   5.78672858   0.00000000
-42.97054438   5.78613383   0.00000000
-42.87054438   5.78553500   0.00000000
-42.77054438   5.78493209   0.00000000
-42.67054438   5.78432506   0.00000000
-42.57054438   5.78371391   0.00000000
-42.47054438   5.78309861   0.00000000
-42.37054438   5.78247916   0.00000000
-42.27054438   5.78185552   0.00000000
-42.17054438   5.78122769   0.00000000
-42.07054438   5.78059564   0.00000000
-41.97054438   5.77995936   0.00000000
-41.87054438   5.77931883   0.00000000
-41.77054438   5.77867404   0.00000000
-41.67054438   5.77802496   0.00000000
-41.57054438   5.77737158   0.00000000
-41.47054438   5.77671389   0.00000000
-41.37054438   5.77605186   0.00000000
-41.27054438   5.77538547   0.00000000
-41.17054438   5.77471472   0.00000000
-41.07054438   5.77403958   0.00000000
-40.97054438   5.77336004   0.00000000
-40.87054438   5.77267608   0.00000000
-40.77054438   5.77198768   0.00000000
-40.67054438   5.77129482   0.00000000
-40.57054438   5.77059750   0.00000000
-40.47054438   5.76989569   0.00000000
-40.37054438   5.76918937   0.00000000
-40.27054438   5.76847854   0.00000000
-40.17054438   5.76776316   0.00000000
-40.07054438   5.76704324   0.00000000
-39.97054438   5.76631874   0.00000000
-39.87054438   5.76558966   0.00000000
-39.77054438   5.76485597   0.00000000
-39.67054438   5.76411767   0.00000000
-39.57054438   5.76337473   0.00000000
-39.47054438   5.76262715   0.00000000
-39.37054438   5.76187489   0.00000000
-39.27054438   5.76111796   0.00000000
-39.17054438   5.76035633   0.00000000
-39.07054438   5.75958998   0.00000000
-38.97054438   5.75881890   0.00000000
-38.87054438   5.75804308   0.00000000
-38.77054438   5.75726251   0.00000000
-38.67054438   5.75647715   0.00000000
-38.57054438   5.75568701   0.00000000
-38.47054438   5.75489206   0.00000000
-38.37054438   5.75409229   0.00000000
-38.27054438   5.75328768   0.00000000
-38.17054438   5.75247823   0.00000000
-38.07054438   5.75166391   0.00000000
-37.97054438   5.75084471   0.00000000
-37.87054438   5.75002062   0.00000000
-37.77054438   5.74919162   0.00000000
-37.67054438   5.74835770   0.00000000
-37.57054438   5.74751884   0.00000000
-37.47054438   5.74667504   0.00000000
-37.37054438   5.74582627   0.00000000
-37.27054438   5.74497252   0.00000000
-37.17054438   5.74411378   0.00000000
-37.07054438   5.74325003   0.00000000
-36.97054438   5.74238127   0.00000000
-36.87054438   5.74150748   0.00000000
-36.77054438   5.74062864   0.00000000
-36.67054438   5.73974475   0.00000000
-36.57054438   5.73885578   0.00000000
-36.47054438   5.73796174   0.00000000
-36.37054438   5.73706259   0.00000000
-36.27054438   5.73615834   0.00000000
-36.17054438   5.73524897   0.00000000
-36.07054438   5.73433447   0.00000000
-35.97054438   5.73341483   0.00000000
-35.87054438   5.73249003   0.00000000
-35.77054438   5.73156006   0.00000000
-35.67054438   5.73062491   0.00000000
-35.57054438   5.72968458   0.00000000
-35.47054438   5.72873904   0.00000000
-35.37054438   5.72778830   0.00000000
-35.27054438   5.72683233   0.00000000
-35.17054438   5.72587112   0.00000000
-35.07054438   5.72490468   0.00000000
-34.97054438   5.72393298   0.00000000
-34.87054438   5.72295602   0.00000000
-34.77054438   5.72197378   0.00000000
-34.67054438   5.72098626   0.00000000
-34.57054438   5.71999345   0.00000000
-34.47054438   5.71899533   0.00000000
-34.37054438   5.71799191   0.00000000
-34.27054438   5.71698317   0.00000000
-34.17054438   5.71596909   0.00000000
-34.07054438   5.71494968   0.00000000
-33.97054438   5.71392493   0.00000000
-33.87054438   5.71289482   0.00000000
-33.77054438   5.71185935   0.00000000
-33.67054438   5.71081851   0.00000000
-33.57054438   5.70977230   0.00000000
-33.47054438   5.70872070   0.00000000
-33.37054438   5.70766371   0.00000000
-33.27054438   5.70660133   0.00000000
-33.17054438   5.70553354   0.00000000
-33.07054438   5.70446034   0.00000000
-32.97054438   5.70338173   0.00000000
-32.87054438   5.70229770   0.00000000
-32.77054438   5.70120823   0.00000000
-32.67054438   5.70011334   0.00000000
-32.57054438   5.69901301   0.00000000
-32.47054438   5.69790724   0.00000000
-32.37054438   5.69679601   0.00000000
-32.27054438   5.69567934   0.00000000
-32.17054438   5.69455722   0.00000000
-32.07054438   5.69342963   0.00000000
-31.97054438   5.69229658   0.00000000
-31.87054438   5.69115807   0.00000000
-31.77054438   5.69001409   0.00000000
-31.67054438   5.68886463   0.00000000
-31.57054438   5.68770971   0.00000000
-31.47054438   5.68654930   0.00000000
-31.37054438   5.68538342   0.00000000
-31.27054438   5.68421206   0.00000000
-31.17054438   5.68303523   0.00000000
-31.07054438   5.68185290   0.00000000
-30.97054438   5.68066510   0.00000000
-30.87054438   5.67947182   0.00000000
-30.77054438   5.67827305   0.00000000
-30.67054438   5.67706880   0.00000000
-30.57054438   5.67585907   0.00000000
-30.47054438   5.67464386   0.00000000
-30.37054438   5.67342317   0.00000000
-30.27054438   5.67219700   0.00000000
-30.17054438   5.67096535   0.00000000
-30.07054438   5.66972823   0.00000000
-29.97054438   5.66848565   0.00000000
-29.87054438   5.66723759   0.00000000
-29.77054438   5.66598406   0.00000000
-29.67054438   5.66472508   0.00000000
-29.57054438   5.66346064   0.00000000
-29.47054438   5.66219074   0.00000000
-29.37054438   5.66091540   0.00000000
-29.27054438   5.65963461   0.00000000
-29.17054438   5.65834838   0.00000000
-29.07054438   5.65705672   0.00000000
-28.97054438   5.65575964   0.00000000
-28.87054438   5.65445713   0.00000000
-28.77054438   5.65314921   0.00000000
-28.67054438   5.65183588   0.00000000
-28.57054438   5.65051716   0.00000000
-28.47054438   5.64919304   0.00000000
-28.37054438   5.64786354   0.00000000
-28.27054438   5.64652867   0.00000000
-28.17054438   5.64518843   0.00000000
-28.07054438   5.64384284   0.00000000
-27.97054438   5.64249190   0.00000000
-27.87054438   5.64113563   0.00000000
-27.77054438   5.63977403   0.00000000
-27.67054438   5.63840712   0.00000000
-27.57054438   5.63703491   0.00000000
-27.47054438   5.63565741   0.00000000
-27.37054438   5.63427463   0.00000000
-27.27054438   5.63288659   0.00000000
-27.17054438   5.63149330   0.00000000
-27.07054438   5.63009477   0.00000000
-26.97054438   5.62869102   0.00000000
-26.87054438   5.62728206   0.00000000
-26.77054438   5.62586790   0.00000000
-26.67054438   5.62444857   0.00000000
-26.57054438   5.62302408   0.00000000
-26.47054438   5.62159444   0.00000000
-26.37054438   5.62015968   0.00000000
-26.27054438   5.61871980   0.00000000
-26.17054438   5.61727483   0.00000000
-26.07054438   5.61582479   0.00000000
-25.97054438   5.61436969   0.00000000
-25.87054438   5.61290956   0.00000000
-25.77054438   5.61144440   0.00000000
-25.67054438   5.60997425   0.00000000
-25.57054438   5.60849913   0.00000000
-25.47054438   5.60701905   0.00000000
-25.37054438   5.60553403   0.00000000
-25.27054438   5.60404411   0.00000000
-25.17054438   5.60254930   0.00000000
-25.07054438   5.60104963   0.00000000
-24.97054438   5.59954511   0.00000000
-24.87054438   5.59803578   0.00000000
-24.77054438   5.59652165   0.00000000
-24.67054438   5.59500276   0.00000000
-24.57054438   5.59347913   0.00000000
-24.47054438   5.59195079   0.00000000
-24.37054438   5.59041775   0.00000000
-24.27054438   5.58888006   0.00000000
-24.17054438   5.58733774   0.00000000
-24.07054438   5.58579081   0.00000000
-23.97054438   5.58423931   0.00000000
