# intensity: 0.85410971285087
# background: 0
#           Q (1/A)             dQ (1/A)                    R                   dR               theory              fresnel
  0.0143638509998554 0.000172036044080627    0.565930358706146   0.0219436409288215    0.498281548513629    0.240901593073872
  0.0144356702548547 0.000172831581713832    0.531439671282786   0.0206421417506449    0.491606130587729    0.234933043867068
   0.014507848606129 0.000173633235470366    0.544629185834968   0.0211933391468411    0.483336297701649     0.22770912869949
  0.0145803878491596 0.000174440969368064    0.490340104080224   0.0196671604012803    0.473385341184712    0.219252164811973
  0.0146532897884054 0.000175254749164081    0.480140279829427   0.0196532871745028    0.461888735550978    0.209791650423396
  0.0147265562373474 0.000176074542314739    0.411677064442139   0.0170331800910302    0.449219674602491    0.199749940969892
  0.0148001890185342 0.000176900317936095    0.454874569369808   0.0181767668399755    0.435883872878953    0.189622060207275
  0.0148741899636268 0.000177732046765213    0.482540017009352   0.0184036246272718    0.422349738733073    0.179818118168897
   0.014948560913445 0.000178569701122159    0.386757957123397   0.0159921650945892    0.408932562036513    0.170575951128218
  0.0150233037180122 0.000179413254872728    0.403356694807918   0.0162978203112478    0.395786223562746    0.161976024684599
  0.0150984202366022 0.000180262683391891     0.39653168325504   0.0158680715250202    0.382958688387241    0.154005678962525
  0.0151739123377852 0.000181117963527968    0.334566150410644   0.0144074549088375    0.370446211546509    0.146613123793936
  0.0152497818994742 0.000181979073567542    0.351234434615928   0.0146258685640444    0.358237604931337    0.139745867258429
  0.0153260308089715 0.000182845993201086     0.34731385482898   0.0146168826244839    0.346312578343234    0.133349590104927
  0.0154026609630164 0.000183718703489326    0.323970167782623   0.0138698563914716    0.334654515570794    0.127377629645354
  0.0154796742678315 0.000184597186830322    0.321433133228734   0.0138459791190727    0.323249854749579    0.121789603093208
  0.0155570726391706 0.000185481426927264    0.293244018625093   0.0127199115084169    0.312087595104484    0.116550330941421
  0.0156348580023665 0.000186371408756988     0.29163028487577   0.0127117662137136    0.301158898121553    0.111628983988722
  0.0157130322923783 0.000187267118539195    0.308332515492432   0.0130277841497258    0.290456760354858    0.106998399738764
  0.0157915974538402 0.000188168543706371    0.287313008287062   0.0124997841812968    0.279975741311792    0.102634528877487
  0.0158705554411094 0.000189075672874405    0.281640679182804   0.0122082415643366    0.269711734203229   0.0985159829060408
   0.015949908218315 0.000189988495813892    0.255746397233292   0.0115254326133411    0.259661770428341   0.0946236613255258
  0.0160296577594065 0.000190907003422111    0.223820548620414   0.0108396730859122    0.249823850891292   0.0909404420224979
  0.0161098060482036 0.000191831187695683    0.236481756242288   0.0107890922385718    0.240196798881301   0.0874509223315144
  0.0161903550784446 0.000192761041703879    0.223526907043014   0.0104824026848666    0.230780130463774   0.0841412010779816
  0.0162713068538368 0.000193696559562594    0.244573635616907   0.0107801548928197    0.221573939246804   0.0809986940187707
   0.016352663388106  0.00019463773640895    0.215644903628891  0.00988463867526543    0.212578793086083   0.0780119766971686
  0.0164344267050465 0.000195584568376544    0.189651493089838   0.0091288769428574    0.203795640829355   0.0751706499508439
  0.0165165988385717 0.000196537052571312    0.193959963324548  0.00929055695014848    0.195225727619423   0.0724652242545006
  0.0165991818327646 0.000197495187048009     0.18528886045414  0.00871890096359961    0.186870517601733   0.0698870198129679
  0.0166821777419284 0.000198458970787297    0.168044503887524   0.0085538391650687    0.178731623139653   0.0674280798966429
  0.0167655886306381  0.00019942840367341    0.167606737869993  0.00821967300432183    0.170810739843513   0.0650810953668963
  0.0168494165737912 0.000200403486472423    0.156915115692632  0.00780382990634964    0.163109586879716   0.0628393387020514
  0.0169336636566602  0.00020138422081107    0.152774019029396  0.00762669966689863    0.155629852152566   0.0606966061256544
  0.0170183319749435 0.000202370609156138    0.144533541942043  0.00727983923965878    0.148373142050443   0.0586471666736666
  0.0171034236348182 0.000203362654794406    0.146136165439482  0.00741623360432861    0.141340935524695   0.0566857172279098
  0.0171889407529923 0.000204360361813118    0.122026378905184  0.00672380313155202    0.134534542328188   0.0548073426987697
  0.0172748854567573 0.000205363735080992     0.13056661791851  0.00680698690914679    0.127955065283826   0.0530074806679021
   0.017361259884041 0.000206372780229742    0.128316069517685  0.00668741285335009    0.121603366484346   0.0512818899070486
  0.0174480661834612 0.000207387503636105    0.116314542107396  0.00638776301612995    0.115480037345125   0.0496266222763602
  0.0175353065143786  0.00020840791240437     0.10980818675568  0.00588123734434516    0.109585372443619   0.0480379975782969
  0.0176229830469504 0.000209434014349386    0.103352504587428  0.00572012846277421    0.103919347083707   0.0465125810039008
  0.0177110979621852  0.00021046581798005   0.0976886114508632  0.00555413807985524   0.0984815985220727   0.0450471628592264
  0.0177996534519961 0.000211503332483257    0.093262750072936  0.00532011278976358   0.0932714107879012   0.0436387403026562
  0.0178886517192561 0.000212546567708301   0.0875989399692416  0.00513337162123617   0.0882877030176685   0.0422845008601539
  0.0179780949778524 0.000213595534151728   0.0745979744132674  0.00469914101887306   0.0835290212145695   0.0409818075163293
  0.0180679854527416 0.000214650242942618    0.076412496554935  0.00478519280572426   0.0789935333280308   0.0397281852054392
  0.0181583253800053 0.000215710705828289   0.0732633307227715  0.00452621864740963   0.0746790275334882    0.038521308548867
  0.0182491170069054 0.000216776935160418    0.072499045797374   0.0045127983488725   0.0705829135769274     0.03735899070484
  0.0183403625919399 0.000217848943881568   0.0685194276760771  0.00427479614097438    0.066702227033133   0.0362391732126544
  0.0184320644048996 0.000218926745512105   0.0492623190342895  0.00371981858164603   0.0630336363117316   0.0351599167279147
  0.0185242247269241 0.000220010354137503   0.0570022200605236  0.00388713053893096   0.0595734522313818     0.03411939255759
  0.0186168458505587 0.000221099784396029   0.0502158331890115  0.00359936077318005   0.0563176399702568   0.0331158749143564
  0.0187099300798115 0.000222195051466787   0.0464840692796814  0.00341974011697318   0.0532618331905788   0.0321477338189494
  0.0188034797302105 0.000223296171058126   0.0510782209638533  0.00351100881623696   0.0504013501266388     0.03121342858732
  0.0188974971288616 0.000224403159396396    0.046878345010829  0.00337812909168546   0.0477312114196329   0.0303115018464266
  0.0189919846145059 0.000225516033215043   0.0472628929535192  0.00332887364316238    0.045246159478871   0.0294405740286547
  0.0190869445375784 0.000226634809744037   0.0393979659046253  0.00313403814113698   0.0429406791474864   0.0285993383002591
  0.0191823792602663 0.000227759506699627   0.0428000135908782  0.00315095859122849    0.040809019451693   0.0277865558839686
  0.0192782911565677 0.000228890142274405   0.0447096541567432  0.00318117384173524   0.0388452162158008   0.0270010517400724
  0.0193746826123505 0.000230026735127682   0.0324381651332072  0.00263631104510731   0.0370431153305043   0.0262417105739951
  0.0194715560254122 0.000231169304376168   0.0320649836028761  0.00271700195797166   0.0353963964692383   0.0255074731416264
  0.0195689138055393 0.000232317869584929   0.0345011450392486   0.0027470456155746   0.0338985970564494   0.0247973328265578
   0.019666758374567  0.00023347245075865   0.0350490685670982  0.00270885413909371   0.0325431363022552   0.0241103324659392
  0.0197650921664398 0.000234633068333156   0.0295254753727006  0.00244064100435876   0.0313233391299104   0.0234455614039451
   0.019863917627272 0.000235799743167215   0.0289137957048221  0.00243209505666667   0.0302324598355304   0.0228021527538658
  0.0199632372154084 0.000236972496534598   0.0262657584597797   0.0022332468065358   0.0292637053333876   0.0221792808516457
  0.0200630534014854 0.000238151350116397   0.0317776049207728  0.00250150162775615   0.0284102578545448   0.0215761588853037
  0.0201633686684928 0.000239336325993595   0.0310943797549937  0.00253019017202861   0.0276652969813864   0.0209920366861168
  0.0202641855118353 0.000240527446639871   0.0277014171111316  0.00229779416084297   0.0270220209155194   0.0204261986687379
  0.0203655064393945 0.000241724734914651   0.0243760171409844  0.00225187543358467   0.0264736668913342   0.0198779619085806
  0.0204673339715915 0.000242928214056383     0.02561118079468   0.0021392167381363   0.0260135306620411   0.0193466743458469
  0.0205696706414494 0.000244137907676035   0.0238037606479788  0.00203129373597915   0.0256349849990604   0.0188317131065099
  0.0206725189946566 0.000245353839750816   0.0245375214305801  0.00205667688542433   0.0253314971590925   0.0183324829314093
  0.0207758815896299 0.000246576034618105   0.0205704874928422  0.00186777950189909   0.0250966452858986   0.0178484147053795
  0.0208797609975781 0.000247804516969587   0.0270143396266072  0.00217969658744084   0.0249241337256737   0.0173789640790199
   0.020984159802566 0.000249039311845591   0.0245984185865236  0.00201261292874668   0.0248078072458212   0.0169236101763354
  0.0210890806015788 0.000250280444629624   0.0280004373435892  0.00212605996266153   0.0247416641568624   0.0164818543820444
  0.0211945260045867 0.000251527941043088     0.02361441599068  0.00199393705642226   0.0247198683461146   0.0160532192028589
  0.0213004986346096 0.000252781827140197    0.022529330420963  0.00190668179140973   0.0247367602396118   0.0156372471975056
  0.0214070011277827 0.000254042129303053   0.0256156922133237  0.00202728623516541   0.0247868667155239   0.0152334999706787
  0.0215140361334216 0.000255308874236918   0.0253903512283616  0.00196195514534276   0.0248649099980715   0.0148415572264995
  0.0216216063140887 0.000256582088965641   0.0253093379703816  0.00197219827599662   0.0249658155656424   0.0144610158774041
  0.0217297143456591 0.000257861800827257   0.0253492725197883  0.00192436034268044   0.0250847191105513   0.0140914892047024
  0.0218383629173874 0.000259148037469746   0.0292529539587952  0.00207672119584841    0.025216972590672   0.0137326060673371
  0.0219475547319744 0.000260440826846947   0.0252980086040179  0.00193421853359123   0.0253581494150775    0.013384010155642
  0.0220572925056342 0.000261740197214629   0.0280577344444451  0.00197413999009813   0.0255040488069085   0.0130453592871363
  0.0221675789681624 0.000263046177126699   0.0258661855427892  0.00192595179665918   0.0256506993870081   0.0127163247416166
  0.0222784168630032 0.000264358795431571   0.0247644008893505  0.00179818757339971   0.0257943620214947   0.0123965906330102
  0.0223898089473182 0.000265678081268657   0.0224381114601974  0.00171280151417585   0.0259315319754523     0.01208585331564
  0.0225017579920548 0.000267004064065005   0.0280808693465825  0.00191081192175647   0.0260589404133751   0.0117838208227212
  0.0226142667820151 0.000268336773532067   0.0281187602464804  0.00190009853559142   0.0261735552849832   0.0114902123350687
  0.0227273381159251 0.000269676239662596    0.026213498293066  0.00183096321986559   0.0262725816325928   0.0112047576781373
  0.0228409748065048 0.000271022492727661   0.0274162256251987  0.00186741153676549   0.0263534613534573   0.0109271968456487
  0.0229551796805373 0.000272375563273797   0.0282587217999944   0.0018663093823594   0.0264138724474487   0.0106572795481843
    0.02306995557894 0.000273735482120262   0.0294924649344218  0.00186505214533509   0.0264517277772012   0.0103947647852314
  0.0231853053568347 0.000275102280356411   0.0289255297293304  0.00185483773852753    0.026465173364447   0.0101394204392788
  0.0233012318836188 0.000276475989339185   0.0256508880112003  0.00172433280201892   0.0264525862427988  0.00989102289064934
  0.0234177380430369 0.000277856640690707   0.0265897795104848  0.00173801573890375   0.0264125718837405  0.00964935665184871
  0.0235348267332521 0.000279244266295981   0.0242623785269354  0.00163574554281175   0.0263439612091267  0.00941421402028983
  0.0236525008669184 0.000280638898300697   0.0254909848115451  0.00172496764607425   0.0262458072001214  0.00918539474832852
   0.023770763371253 0.000282040569109133   0.0200373621241757  0.00149509463370266   0.0261173811092843  0.00896270572961583
  0.0238896171881092 0.000283449311382155   0.0298352906796145  0.00183808874821998   0.0259581682794771  0.00874596070083786
  0.0240090652740498 0.000284865158035315   0.0272250646666678  0.00171717735659235   0.0257678635704781  0.00853497995797339
    0.02412911060042 0.000286288142237032   0.0250317364915124  0.00161753156545137   0.0255463663916932  0.00832959008625578
  0.0242497561534221 0.000287718297406866   0.0274052685042356  0.00170096924802194    0.025293775337186  0.00812962370307734
  0.0243710049341892 0.000289155657213885   0.0235652665429467  0.00157014039789248   0.0250103824174635  0.00793491921312229
  0.0244928599588602 0.000290600255575107   0.0235884205924691  0.00159866975292244   0.0246966668810777  0.00774532057505935
  0.0246153242586545 0.000292052126654024   0.0243015090321919  0.00164103443100479   0.0243532886181816  0.00756067707916628
  0.0247384008799477 0.000293511304859213   0.0249030199201673  0.00162401673805827   0.0239810811377361  0.00738084313529752
  0.0248620928843475  0.00029497782484302   0.0240319439562664  0.00149821847376493   0.0235810441101393  0.00720567807064209
  0.0249864033487692 0.000296451721500313   0.0241083459313906  0.00147991979709635   0.0231543354676517  0.00703504593675216
   0.025111335365513 0.000297933029967319   0.0247694741328763  0.00151387673397212    0.022702263056157  0.00686881532535444
  0.0252368920423406 0.000299421785620525   0.0211136108747048  0.00138255470248791   0.0222262758335197  0.00670685919248512
  0.0253630765025523 0.000300918024075649   0.0241468618236434  0.00147228365356515   0.0217279546121033  0.00654905469051674
  0.0254898918850651 0.000302421781186681   0.0199586007696413  0.00132968589637354   0.0212090023458798  0.00639528300767049
  0.0256173413444904 0.000303933093044981   0.0220138725051961  0.00138240173806415   0.0206712339659926  0.00624542921463132
  0.0257454280512128 0.000305451995978453   0.0185337975366811  0.00126739086964349   0.0201165657725995  0.00609938211790522
  0.0258741551914689 0.000306978526550769   0.0205909013386073  0.00132272715067374    0.019547004395313  0.00595703411957905
  0.0260035259674262  0.00030851272156066   0.0194375289266206   0.0012996600178815   0.0189646353395013  0.00581828108316239
  0.0261335435972634  0.00031005461804126   0.0200721753482063  0.00130164535363625   0.0183716111410999  0.00568302220520916
  0.0262642113152497 0.000311604253259513    0.016726971599252  0.00118053816294961   0.0177701391583242  0.00555115989243402
  0.0263955323718259  0.00031316166471563   0.0162490559158835  0.00114916296898724   0.0171624690347082  0.00542259964405391
  0.0265275100336851 0.000314726890142599   0.0153325914057837  0.00119199774932987   0.0165508798741458  0.00529724993910065
  0.0266601475838535 0.000316299967505754   0.0148879976895037  0.00109825869602234   0.0159376671749764  0.00517502212846414
  0.0267934483217727 0.000317880935002384   0.0168016666634921  0.00123550139196533   0.0153251295765486  0.00505583033143907
  0.0269274155633816 0.000319469831061401   0.0141521810193093  0.00113595635076823    0.014715555477994  0.00493959133656009
  0.0270620526411985  0.00032106669434305   0.0125091518171854  0.00101364870746843   0.0141112095950448  0.00482622450652246
  0.0271973629044045  0.00032267156373867   0.0142204249227852  0.00103403191602839   0.0135143195265058  0.00471565168699565
  0.0273333497189265 0.000324284478370495   0.0127993884144113 0.000973423058848615   0.0129270624073281  0.00460779711914782
  0.0274700164675212 0.000325905477591502   0.0127665485045076  0.00096776040507789   0.0123515517300021  0.00450258735570865
  0.0276073665498588 0.000327534600985307   0.0130910005637364  0.00096584053839842   0.0117898244200765  0.00439995118040725
   0.027745403382608  0.00032917188836609   0.0109740352659834 0.000900850007776383   0.0112438282548989  0.00429981953063009
  0.0278841303995211 0.000330817379778575   0.0116035236523209 0.000904425598427188    0.010715409717062  0.00420212542315216
  0.0280235510515187  0.00033247111549804   0.0110862543824198 0.000874930062581855   0.0102063023754252  0.00410680388280214
  0.0281636688067763 0.000334133136030368  0.00918190454341421 0.000819044030401221  0.00971811588688685  0.00401379187392928
  0.0283044871508101 0.000335803482112136  0.00951821560406445 0.000814906371392719  0.00925232571124263  0.00392302823454668
  0.0284460095865642 0.000337482194710744  0.00829721442604583 0.000786239172099857   0.0088102636294278  0.00383445361303184
   0.028588239634497 0.000339169315024572  0.00880653265411965 0.000771235876333647  0.00839310915218431  0.00374801040727129
  0.0287311808326695 0.000340864884483176  0.00787411610304498 0.000733212389484524  0.00800188190170664  0.00366364270614197
  0.0288748367368328 0.000342568944747518  0.00784894435040665 0.000724633607107245  0.00763743504312599  0.00358129623322715
   0.029019210920517  0.00034428153771023  0.00646186365114119 0.000667698279750979  0.00730044983582731  0.00350091829266978
  0.0291643069751196 0.000346002705495906  0.00692006441124956 0.000671265382174015   0.0069914313666228    0.003422457717071
  0.0293101285099952 0.000347732490461426  0.00613420035051321 0.000655443041745198  0.00671070551781745  0.00334586481734589
  0.0294566791525452 0.000349470935196316  0.00592257502259372 0.000632661673888993  0.00645841721329922  0.00327109133445298
  0.0296039625483079 0.000351218082523128  0.00642155650038881  0.00065687851747125  0.00623452997509939  0.00319809039291785
  0.0297519823610494 0.000352973975497859  0.00662229785281402 0.000663427344661509  0.00603882681153507  0.00312681645607519
  0.0299007422728547 0.000354738657410387   0.0056126841290657 0.000597618881480271   0.0058709124462243  0.00305722528295705
  0.0300502459842189 0.000356512171784949  0.00569101408245717 0.000607972162240722  0.00573021688511655  0.00298927388675865
    0.03020049721414  0.00035829456238063  0.00580072359786327 0.000600816337771604  0.00561600030637956  0.00292292049481619
  0.0303514997002107 0.000360085873191889  0.00558693023795852 0.000591533450038961  0.00552735924569901  0.00285812451003423
  0.0305032571987118 0.000361886148449104  0.00568239197686217 0.000591750993192664   0.0054632340374501   0.0027948464737032
  0.0306557734847053  0.00036369543261915  0.00597432899962269 0.000627788094337336  0.00542241746045367  0.00273304802965004
  0.0308090523521288  0.00036551377040599  0.00496812476655144 0.000579770039540169  0.00540356452578819  0.00267269188966808
  0.0309630976138895 0.000367341206751299  0.00553125811999663 0.000605642791929601  0.00540520333353287  0.00261374180017425
  0.0311179131019589 0.000369177786835105  0.00548250513764725 0.000595957341495542  0.00542574691549143  0.00255616251004439
  0.0312735026674687  0.00037102355607646  0.00525738382828443 0.000578481509976689  0.00546350597199749   0.0024999197395795
