#      z (A) rho (1e-6/A2) irho (1e-6/A2)
-86.57952263   5.85417390   0.00000000
-86.47952263   5.85414860   0.00000000
-86.37952263   5.85412304   0.00000000
-86.27952263   5.85409722   0.00000000
-86.17952263   5.85407112   0.00000000
-86.07952263   5.85404476   0.00000000
-85.97952263   5.85401812   0.00000000
-85.87952263   5.85399120   0.00000000
-85.77952263   5.85396400   0.00000000
-85.67952263   5.85393653   0.00000000
-85.57952263   5.85390877   0.00000000
-85.47952263   5.85388072   0.00000000
-85.37952263   5.85385238   0.00000000
-85.27952263   5.85382375   0.00000000
-85.17952263   5.85379483   0.00000000
-85.07952263   5.85376561   0.00000000
-84.97952263   5.85373609   0.00000000
-84.87952263   5.85370627   0.00000000
-84.77952263   5.85367614   0.00000000
-84.67952263   5.85364570   0.00000000
-84.57952263   5.85361495   0.00000000
-84.47952263   5.85358389   0.00000000
-84.37952263   5.85355251   0.00000000
-84.27952263   5.85352081   0.00000000
-84.17952263   5.85348879   0.00000000
-84.07952263   5.85345645   0.00000000
-83.97952263   5.85342377   0.00000000
-83.87952263   5.85339077   0.00000000
-83.77952263   5.85335743   0.00000000
-83.67952263   5.85332375   0.00000000
-83.57952263   5.85328973   0.00000000
-83.47952263   5.85325538   0.00000000
-83.37952263   5.85322067   0.00000000
-83.27952263   5.85318562   0.00000000
-83.17952263   5.85315021   0.00000000
-83.07952263   5.85311445   0.00000000
-82.97952263   5.85307833   0.00000000
-82.87952263   5.85304184   0.00000000
-82.77952263   5.85300500   0.00000000
-82.67952263   5.85296778   0.00000000
-82.57952263   5.85293019   0.00000000
-82.47952263   5.85289223   0.00000000
-82.37952263   5.85285389   0.00000000
-82.27952263   5.85281517   0.00000000
-82.17952263   5.85277607   0.00000000
-82.07952263   5.85273658   0.00000000
-81.97952263   5.85269669   0.00000000
-81.87952263   5.85265642   0.00000000
-81.77952263   5.85261574   0.00000000
-81.67952263   5.85257466   0.00000000
-81.57952263   5.85253318   0.00000000
-81.47952263   5.85249129   0.00000000
-81.37952263   5.85244899   0.00000000
-81.27952263   5.85240627   0.00000000
-81.17952263   5.85236313   0.00000000
-81.07952263   5.85231958   0.00000000
-80.97952263   5.85227559   0.00000000
-80.87952263   5.85223118   0.00000000
-80.77952263   5.85218633   0.00000000
-80.67952263   5.85214104   0.00000000
-80.57952263   5.85209532   0.00000000
-80.47952263   5.85204915   0.00000000
-80.37952263   5.85200253   0.00000000
-80.27952263   5.85195546   0.00000000
-80.17952263   5.85190793   0.00000000
-80.07952263   5.85185994   0.00000000
-79.97952263   5.85181149   0.00000000
-79.87952263   5.85176258   0.00000000
-79.77952263   5.85171319   0.00000000
-79.67952263   5.85166332   0.00000000
-79.57952263   5.85161298   0.00000000
-79.47952263   5.85156215   0.00000000
-79.37952263   5.85151084   0.00000000
-79.27952263   5.85145903   0.00000000
-79.17952263   5.85140673   0.00000000
-79.07952263   5.85135393   0.00000000
-78.97952263   5.85130063   0.00000000
-78.87952263   5.85124682   0.00000000
-78.77952263   5.85119249   0.00000000
-78.67952263   5.85113765   0.00000000
-78.57952263   5.85108229   0.00000000
-78.47952263   5.85102640   0.00000000
-78.37952263   5.85096999   0.00000000
-78.27952263   5.85091304   0.00000000
-78.17952263   5.85085556   0.00000000
-78.07952263   5.85079753   0.00000000
-77.97952263   5.85073895   0.00000000
-77.87952263   5.85067983   0.00000000
-77.77952263   5.85062015   0.00000000
-77.67952263   5.85055991   0.00000000
-77.57952263   5.85049910   0.00000000
-77.47952263   5.85043773   0.00000000
-77.37952263   5.85037578   0.00000000
-77.27952263   5.85031325   0.00000000
-77.17952263   5.85025014   0.00000000
-77.07952263   5.85018645   0.00000000
-76.97952263   5.85012216   0.00000000
-76.87952263   5.85005727   0.00000000
-76.77952263   5.84999178   0.00000000
-76.67952263   5.84992569   0.00000000
-76.57952263   5.84985899   0.00000000
-76.47952263   5.84979166   0.00000000
-76.37952263   5.84972372   0.00000000
-76.27952263   5.84965515   0.00000000
-76.17952263   5.84958595   0.00000000
-76.07952263   5.84951612   0.00000000
-75.97952263   5.84944564   0.00000000
-75.87952263   5.84937452   0.00000000
-75.77952263   5.84930275   0.00000000
-75.67952263   5.84923032   0.00000000
-75.57952263   5.84915723   0.00000000
-75.47952263   5.84908348   0.00000000
-75.37952263   5.84900905   0.00000000
-75.27952263   5.84893395   0.00000000
-75.17952263   5.84885816   0.00000000
-75.07952263   5.84878169   0.00000000
-74.97952263   5.84870452   0.00000000
-74.87952263   5.84862666   0.00000000
-74.77952263   5.84854809   0.00000000
-74.67952263   5.84846882   0.00000000
-74.57952263   5.84838883   0.00000000
-74.47952263   5.84830812   0.00000000
-74.37952263   5.84822669   0.00000000
-74.27952263   5.84814452   0.00000000
-74.17952263   5.84806162   0.00000000
-74.07952263   5.84797798   0.00000000
-73.97952263   5.84789360   0.00000000
-73.87952263   5.84780845   0.00000000
-73.77952263   5.84772255   0.00000000
-73.67952263   5.84763589   0.00000000
-73.57952263   5.84754846   0.00000000
-73.47952263   5.84746025   0.00000000
-73.37952263   5.84737125   0.00000000
-73.27952263   5.84728148   0.00000000
-73.17952263   5.84719090   0.00000000
-73.07952263   5.84709953   0.00000000
-72.97952263   5.84700735   0.00000000
-72.87952263   5.84691437   0.00000000
-72.77952263   5.84682056   0.00000000
-72.67952263   5.84672593   0.00000000
-72.57952263   5.84663048   0.00000000
-72.47952263   5.84653418   0.00000000
-72.37952263   5.84643705   0.00000000
-72.27952263   5.84633906   0.00000000
-72.17952263   5.84624023   0.00000000
-72.07952263   5.84614053   0.00000000
-71.97952263   5.84603997   0.00000000
-71.87952263   5.84593853   0.00000000
-71.77952263   5.84583622   0.00000000
-71.67952263   5.84573302   0.00000000
-71.57952263   5.84562892   0.00000000
-71.47952263   5.84552393   0.00000000
-71.37952263   5.84541804   0.00000000
-71.27952263   5.84531123   0.00000000
-71.17952263   5.84520350   0.00000000
-71.07952263   5.84509485   0.00000000
-70.97952263   5.84498527   0.00000000
-70.87952263   5.84487475   0.00000000
-70.77952263   5.84476329   0.00000000
-70.67952263   5.84465088   0.00000000
-70.57952263   5.84453750   0.00000000
-70.47952263   5.84442317   0.00000000
-70.37952263   5.84430786   0.00000000
-70.27952263   5.84419157   0.00000000
-70.17952263   5.84407430   0.00000000
-70.07952263   5.84395603   0.00000000
-69.97952263   5.84383677   0.00000000
-69.87952263   5.84371650   0.00000000
-69.77952263   5.84359522   0.00000000
-69.67952263   5.84347291   0.00000000
-69.57952263   5.84334958   0.00000000
-69.47952263   5.84322522   0.00000000
-69.37952263   5.84309981   0.00000000
-69.27952263   5.84297336   0.00000000
-69.17952263   5.84284584   0.00000000
-69.07952263   5.84271727   0.00000000
-68.97952263   5.84258762   0.00000000
-68.87952263   5.84245690   0.00000000
-68.77952263   5.84232509   0.00000000
-68.67952263   5.84219218   0.00000000
-68.57952263   5.84205818   0.00000000
-68.47952263   5.84192307   0.00000000
-68.37952263   5.84178684   0.00000000
-68.27952263   5.84164950   0.00000000
-68.17952263   5.84151102   0.00000000
-68.07952263   5.84137140   0.00000000
-67.97952263   5.84123064   0.00000000
-67.87952263   5.84108872   0.00000000
-67.77952263   5.84094564   0.00000000
-67.67952263   5.84080139   0.00000000
-67.57952263   5.84065597   0.00000000
-67.47952263   5.84050936   0.00000000
-67.37952263   5.84036156   0.00000000
-67.27952263   5.84021256   0.00000000
-67.17952263   5.84006235   0.00000000
-67.07952263   5.83991093   0.00000000
-66.97952263   5.83975828   0.00000000
-66.87952263   5.83960439   0.00000000
-66.77952263   5.83944927   0.00000000
-66.67952263   5.83929290   0.00000000
-66.57952263   5.83913527   0.00000000
-66.47952263   5.83897638   0.00000000
-66.37952263   5.83881621   0.00000000
-66.27952263   5.83865477   0.00000000
-66.17952263   5.83849203   0.00000000
-66.07952263   5.83832800   0.00000000
-65.97952263   5.83816265   0.00000000
-65.87952263   5.83799600   0.00000000
-65.77952263   5.83782802   0.00000000
-65.67952263   5.83765871   0.00000000
-65.57952263   5.83748806   0.00000000
-65.47952263   5.83731606   0.00000000
-65.37952263   5.83714270   0.00000000
-65.27952263   5.83696798   0.00000000
-65.17952263   5.83679188   0.00000000
-65.07952263   5.83661440   0.00000000
-64.97952263   5.83643553   0.00000000
-64.87952263   5.83625526   0.00000000
-64.77952263   5.83607358   0.00000000
-64.67952263   5.83589048   0.00000000
-64.57952263   5.83570595   0.00000000
-64.47952263   5.83551999   0.00000000
-64.37952263   5.83533258   0.00000000
-64.27952263   5.83514372   0.00000000
-64.17952263   5.83495339   0.00000000
-64.07952263   5.83476160   0.00000000
-63.97952263   5.83456832   0.00000000
-63.87952263   5.83437355   0.00000000
-63.77952263   5.83417729   0.00000000
-63.67952263   5.83397951   0.00000000
-63.57952263   5.83378022   0.00000000
-63.47952263   5.83357940   0.00000000
-63.37952263   5.83337705   0.00000000
-63.27952263   5.83317315   0.00000000
-63.17952263   5.83296770   0.00000000
-63.07952263   5.83276068   0.00000000
-62.97952263   5.83255209   0.00000000
-62.87952263   5.83234192   0.00000000
-62.77952263   5.83213015   0.00000000
-62.67952263   5.83191679   0.00000000
-62.57952263   5.83170181   0.00000000
-62.47952263   5.83148521   0.00000000
-62.37952263   5.83126698   0.00000000
-62.27952263   5.83104711   0.00000000
-62.17952263   5.83082560   0.00000000
-62.07952263   5.83060242   0.00000000
-61.97952263   5.83037757   0.00000000
-61.87952263   5.83015105   0.00000000
-61.77952263   5.82992284   0.00000000
-61.67952263   5.82969292   0.00000000
-61.57952263   5.82946131   0.00000000
-61.47952263   5.82922797   0.00000000
-61.37952263   5.82899290   0.00000000
-61.27952263   5.82875610   0.00000000
-61.17952263   5.82851755   0.00000000
-61.07952263   5.82827725   0.00000000
-60.97952263   5.82803517   0.00000000
-60.87952263   5.82779132   0.00000000
-60.77952263   5.82754568   0.00000000
-60.67952263   5.82729824   0.00000000
-60.57952263   5.82704899   0.00000000
-60.47952263   5.82679793   0.00000000
-60.37952263   5.82654503   0.00000000
-60.27952263   5.82629030   0.00000000
-60.17952263   5.82603372   0.00000000
-60.07952263   5.82577528   0.00000000
-59.97952263   5.82551497   0.00000000
-59.87952263   5.82525278   0.00000000
-59.77952263   5.82498870   0.00000000
-59.67952263   5.82472272   0.00000000
-59.57952263   5.82445483   0.00000000
-59.47952263   5.82418502   0.00000000
-59.37952263   5.82391327   0.00000000
-59.27952263   5.82363958   0.00000000
-59.17952263   5.82336394   0.00000000
-59.07952263   5.82308634   0.00000000
-58.97952263   5.82280676   0.00000000
-58.87952263   5.82252519   0.00000000
-58.77952263   5.82224164   0.00000000
-58.67952263   5.82195607   0.00000000
-58.57952263   5.82166849   0.00000000
-58.47952263   5.82137888   0.00000000
-58.37952263   5.82108723   0.00000000
-58.27952263   5.82079353   0.00000000
-58.17952263   5.82049777   0.00000000
-58.07952263   5.82019995   0.00000000
-57.97952263   5.81990004   0.00000000
-57.87952263   5.81959803   0.00000000
-57.77952263   5.81929393   0.00000000
-57.67952263   5.81898771   0.00000000
-57.57952263   5.81867936   0.00000000
-57.47952263   5.81836888   0.00000000
-57.37952263   5.81805625   0.00000000
-57.27952263   5.81774146   0.00000000
-57.17952263   5.81742451   0.00000000
-57.07952263   5.81710537   0.00000000
-56.97952263   5.81678404   0.00000000
-56.87952263   5.81646051   0.00000000
-56.77952263   5.81613476   0.00000000
-56.67952263   5.81580679   0.00000000
-56.57952263   5.81547659   0.00000000
-56.47952263   5.81514414   0.00000000
-56.37952263   5.81480943   0.00000000
-56.27952263   5.81447244   0.00000000
-56.17952263   5.81413318   0.00000000
-56.07952263   5.81379163   0.00000000
-55.97952263   5.81344777   0.00000000
-55.87952263   5.81310160   0.00000000
-55.77952263   5.81275310   0.00000000
-55.67952263   5.81240227   0.00000000
-55.57952263   5.81204909   0.00000000
-55.47952263   5.81169354   0.00000000
-55.37952263   5.81133563   0.00000000
-55.27952263   5.81097533   0.00000000
-55.17952263   5.81061264   0.00000000
-55.07952263   5.81024754   0.00000000
-54.97952263   5.80988002   0.00000000
-54.87952263   5.80951008   0.00000000
-54.77952263   5.80913770   0.00000000
-54.67952263   5.80876286   0.00000000
-54.57952263   5.80838556   0.00000000
-54.47952263   5.80800579   0.00000000
-54.37952263   5.80762353   0.00000000
-54.27952263   5.80723878   0.00000000
-54.17952263   5.80685151   0.00000000
-54.07952263   5.80646172   0.00000000
-53.97952263   5.80606941   0.00000000
-53.87952263   5.80567454   0.00000000
-53.77952263   5.80527713   0.00000000
-53.67952263   5.80487714   0.00000000
-53.57952263   5.80447458   0.00000000
-53.47952263   5.80406942   0.00000000
-53.37952263   5.80366167   0.00000000
-53.27952263   5.80325130   0.00000000
-53.17952263   5.80283830   0.00000000
-53.07952263   5.80242267   0.00000000
-52.97952263   5.80200439   0.00000000
-52.87952263   5.80158345   0.00000000
-52.77952263   5.80115984   0.00000000
-52.67952263   5.80073354   0.00000000
-52.57952263   5.80030455   0.00000000
-52.47952263   5.79987286   0.00000000
-52.37952263   5.79943844   0.00000000
-52.27952263   5.79900129   0.00000000
-52.17952263   5.79856141   0.00000000
-52.07952263   5.79811876   0.00000000
-51.97952263   5.79767336   0.00000000
-51.87952263   5.79722517   0.00000000
-51.77952263   5.79677420   0.00000000
-51.67952263   5.79632043   0.00000000
-51.57952263   5.79586384   0.00000000
-51.47952263   5.79540443   0.00000000
-51.37952263   5.79494219   0.00000000
-51.27952263   5.79447710   0.00000000
-51.17952263   5.79400914   0.00000000
-51.07952263   5.79353832   0.00000000
-50.97952263   5.79306462   0.00000000
-50.87952263   5.79258802   0.00000000
-50.77952263   5.79210852   0.00000000
-50.67952263   5.79162610   0.00000000
-50.57952263   5.79114075   0.00000000
-50.47952263   5.79065246   0.00000000
-50.37952263   5.79016122   0.00000000
-50.27952263   5.78966702   0.00000000
-50.17952263   5.78916984   0.00000000
-50.07952263   5.78866967   0.00000000
-49.97952263   5.78816651   0.00000000
-49.87952263   5.78766033   0.00000000
-49.77952263   5.78715114   0.00000000
-49.67952263   5.78663891   0.00000000
-49.57952263   5.78612363   0.00000000
-49.47952263   5.78560530   0.00000000
-49.37952263   5.78508390   0.00000000
-49.27952263   5.78455942   0.00000000
-49.17952263   5.78403185   0.00000000
-49.07952263   5.78350118   0.00000000
-48.97952263   5.78296740   0.00000000
-48.87952263   5.78243049   0.00000000
-48.77952263   5.78189044   0.00000000
-48.67952263   5.78134725   0.00000000
-48.57952263   5.78080090   0.00000000
-48.47952263   5.78025137   0.00000000
-48.37952263   5.77969867   0.00000000
-48.27952263   5.77914277   0.00000000
-48.17952263   5.77858366   0.00000000
-48.07952263   5.77802135   0.00000000
-47.97952263   5.77745580   0.00000000
-47.87952263   5.77688702   0.00000000
-47.77952263   5.77631498   0.00000000
-47.67952263   5.77573969   0.00000000
-47.57952263   5.77516112   0.00000000
-47.47952263   5.77457927   0.00000000
-47.37952263   5.77399413   0.00000000
-47.27952263   5.77340569   0.00000000
-47.17952263   5.77281392   0.00000000
-47.07952263   5.77221883   0.00000000
-46.97952263   5.77162041   0.00000000
-46.87952263   5.77101863   0.00000000
-46.77952263   5.77041350   0.00000000
-46.67952263   5.76980499   0.00000000
-46.57952263   5.76919311   0.00000000
-46.47952263   5.76857783   0.00000000
-46.37952263   5.76795915   0.00000000
-46.27952263   5.76733706   0.00000000
-46.17952263   5.76671154   0.00000000
-46.07952263   5.76608259   0.00000000
-45.97952263   5.76545020   0.00000000
-45.87952263   5.76481435   0.00000000
-45.77952263   5.76417503   0.00000000
-45.67952263   5.76353224   0.00000000
-45.57952263   5.76288596   0.00000000
-45.47952263   5.76223618   0.00000000
-45.37952263   5.76158290   0.00000000
-45.27952263   5.76092610   0.00000000
-45.17952263   5.76026578   0.00000000
-45.07952263   5.75960191   0.00000000
-44.97952263   5.75893450   0.00000000
-44.87952263   5.75826353   0.00000000
-44.77952263   5.75758899   0.00000000
-44.67952263   5.75691088   0.00000000
-44.57952263   5.75622918   0.00000000
-44.47952263   5.75554388   0.00000000
-44.37952263   5.75485498   0.00000000
-44.27952263   5.75416246   0.00000000
-44.17952263   5.75346631   0.00000000
-44.07952263   5.75276653   0.00000000
-43.97952263   5.75206310   0.00000000
-43.87952263   5.75135602   0.00000000
-43.77952263   5.75064528   0.00000000
-43.67952263   5.74993086   0.00000000
-43.57952263   5.74921276   0.00000000
-43.47952263   5.74849098   0.00000000
-43.37952263   5.74776549   0.00000000
-43.27952263   5.74703629   0.00000000
-43.17952263   5.74630337   0.00000000
-43.07952263   5.74556673   0.00000000
-42.97952263   5.74482635   0.00000000
-42.87952263   5.74408223   0.00000000
-42.77952263   5.74333436   0.00000000
-42.67952263   5.74258272   0.00000000
-42.57952263   5.74182732   0.00000000
-42.47952263   5.74106813   0.00000000
-42.37952263   5.74030517   0.00000000
-42.27952263   5.73953840   0.00000000
-42.17952263   5.73876784   0.00000000
-42.07952263   5.73799346   0.00000000
-41.97952263   5.73721527   0.00000000
-41.87952263   5.73643325   0.00000000
-41.77952263   5.73564740   0.00000000
-41.67952263   5.73485770   0.00000000
-41.57952263   5.73406416   0.00000000
-41.47952263   5.73326676   0.00000000
-41.37952263   5.73246550   0.00000000
-41.27952263   5.73166036   0.00000000
-41.17952263   5.73085135   0.00000000
-41.07952263   5.73003846   0.00000000
-40.97952263   5.72922167   0.00000000
-40.87952263   5.72840098   0.00000000
-40.77952263   5.72757639   0.00000000
-40.67952263   5.72674789   0.00000000
-40.57952263   5.72591547   0.00000000
-40.47952263   5.72507912   0.00000000
-40.37952263   5.72423884   0.00000000
-40.27952263   5.72339463   0.00000000
-40.17952263   5.72254647   0.00000000
-40.07952263   5.72169436   0.00000000
-39.97952263   5.72083830   0.00000000
-39.87952263   5.71997828   0.00000000
-39.77952263   5.71911429   0.00000000
-39.67952263   5.71824633   0.00000000
-39.57952263   5.71737440   0.00000000
-39.47952263   5.71649848   0.00000000
-39.37952263   5.71561858   0.00000000
-39.27952263   5.71473468   0.00000000
-39.17952263   5.71384679   0.00000000
-39.07952263   5.71295489   0.00000000
-38.97952263   5.71205900   0.00000000
-38.87952263   5.71115909   0.00000000
-38.77952263   5.71025516   0.00000000
-38.67952263   5.70934722   0.00000000
-38.57952263   5.70843526   0.00000000
-38.47952263   5.70751927   0.00000000
-38.37952263   5.70659925   0.00000000
-38.27952263   5.70567520   0.00000000
-38.17952263   5.70474711   0.00000000
-38.07952263   5.70381498   0.00000000
-37.97952263   5.70287882   0.00000000
-37.87952263   5.70193860   0.00000000
-37.77952263   5.70099434   0.00000000
-37.67952263   5.70004602   0.00000000
-37.57952263   5.69909366   0.00000000
-37.47952263   5.69813723   0.00000000
-37.37952263   5.69717676   0.00000000
-37.27952263   5.69621222   0.00000000
-37.17952263   5.69524362   0.00000000
-37.07952263   5.69427096   0.00000000
-36.97952263   5.69329423   0.00000000
-36.87952263   5.69231344   0.00000000
-36.77952263   5.69132859   0.00000000
-36.67952263   5.69033967   0.00000000
-36.57952263   5.68934668   0.00000000
-36.47952263   5.68834962   0.00000000
-36.37952263   5.68734850   0.00000000
-36.27952263   5.68634330   0.00000000
-36.17952263   5.68533404   0.00000000
-36.07952263   5.68432071   0.00000000
-35.97952263   5.68330332   0.00000000
-35.87952263   5.68228185   0.00000000
-35.77952263   5.68125633   0.00000000
-35.67952263   5.68022673   0.00000000
-35.57952263   5.67919308   0.00000000
