# intensity: 0.85410971285087
# background: 0
#           Q (1/A)             dQ (1/A)                    R                   dR               theory              fresnel
  0.0143638509998554 0.000172036044080627    0.545665845721978   0.0213914628239522    0.496284345036744    0.240901593073872
  0.0144356702548547 0.000172831581713832    0.493531202392438   0.0197403383942901    0.489640762314353    0.234933043867068
   0.014507848606129 0.000173633235470366    0.538865545504454   0.0212116071365146    0.481413023634768     0.22770912869949
  0.0145803878491596 0.000174440969368064    0.526798955956673   0.0203152281849786    0.471516374382774    0.219252164811973
  0.0146532897884054 0.000175254749164081    0.482264475666013   0.0192633751856701    0.460087293074181    0.209791650423396
  0.0147265562373474 0.000176074542314739    0.456418021805337   0.0180377741652231    0.447498502036567    0.199749940969892
  0.0148001890185342 0.000176900317936095    0.464051076561407   0.0183359233796498    0.434253857651807    0.189622060207275
  0.0148741899636268 0.000177732046765213    0.421421065413258   0.0171504043890646    0.420819247668728    0.179818118168897
   0.014948560913445 0.000178569701122159      0.4478862767189   0.0171805707505488    0.407507593500891    0.170575951128218
  0.0150233037180122 0.000179413254872728    0.406159335845093   0.0161288678490724    0.394470957199536    0.161976024684599
  0.0150984202366022 0.000180262683391891    0.381270454327351   0.0155455627782782    0.381756005796119    0.154005678962525
  0.0151739123377852 0.000181117963527968     0.34118681913677   0.0143448623179105    0.369358049646365    0.146613123793936
  0.0152497818994742 0.000181979073567542    0.372894564960826   0.0152225139890355    0.357265084905239    0.139745867258429
  0.0153260308089715 0.000182845993201086    0.333135637907242   0.0144294737933038    0.345456150028703    0.133349590104927
  0.0154026609630164 0.000183718703489326    0.317288400634417    0.013934363573631    0.333914013374535    0.127377629645354
  0.0154796742678315 0.000184597186830322    0.294438560177371   0.0128922803516544    0.322624545401905    0.121789603093208
  0.0155570726391706 0.000185481426927264    0.305163951572064   0.0130247605526215    0.311576219274453    0.116550330941421
  0.0156348580023665 0.000186371408756988    0.296255380884679    0.012887938165141    0.300759707429375    0.111628983988722
  0.0157130322923783 0.000187267118539195    0.300529076524727   0.0129843025916202    0.290167550965325    0.106998399738764
  0.0157915974538402 0.000188168543706371    0.287691636373441   0.0126318284561415    0.279793885029467    0.102634528877487
  0.0158705554411094 0.000189075672874405    0.253347638418097   0.0115020802474197    0.269634207789786   0.0985159829060408
   0.015949908218315 0.000189988495813892    0.265492890325757   0.0117669252007585    0.259685183706587   0.0946236613255258
  0.0160296577594065 0.000190907003422111    0.236566863867768   0.0108091017546636    0.249944474076663   0.0909404420224979
  0.0161098060482036 0.000191831187695683    0.258750282140938   0.0111730952286149    0.240410589481481   0.0874509223315144
  0.0161903550784446 0.000192761041703879    0.250155074016863   0.0109885351051161    0.231082760004541   0.0841412010779816
  0.0162713068538368 0.000193696559562594     0.23777042531389    0.010455721748426     0.22196082001308   0.0809986940187707
   0.016352663388106  0.00019463773640895     0.21774651086106  0.00997701754564238    0.213045105008419   0.0780119766971686
  0.0164344267050465 0.000195584568376544    0.211607392138565  0.00974747237338951    0.204336358595574   0.0751706499508439
  0.0165165988385717 0.000196537052571312    0.196886228708807  0.00920204165301597    0.195835648047452   0.0724652242545006
  0.0165991818327646 0.000197495187048009    0.183739422664939  0.00874312242988438    0.187544287271578   0.0698870198129679
  0.0166821777419284 0.000198458970787297    0.186585620609225   0.0088202093216051    0.179463766249379   0.0674280798966429
  0.0167655886306381  0.00019942840367341    0.184334967151503  0.00861343287249387    0.171595686225392   0.0650810953668963
  0.0168494165737912 0.000200403486472423     0.15907984338703  0.00789779483338897    0.163941700088134   0.0628393387020514
  0.0169336636566602  0.00020138422081107    0.156427287120806  0.00767976787535405    0.156503457514482   0.0606966061256544
  0.0170183319749435 0.000202370609156138    0.136764725737465  0.00706938508283499    0.149282554552161   0.0586471666736666
  0.0171034236348182 0.000203362654794406    0.139101857510306  0.00723948234889289    0.142280487395201   0.0566857172279098
  0.0171889407529923 0.000204360361813118    0.131256549150239  0.00689058495362564    0.135498610169294   0.0548073426987697
  0.0172748854567573 0.000205363735080992    0.110762293577235  0.00632065490754176    0.128938096590803   0.0530074806679021
   0.017361259884041 0.000206372780229742    0.113578424018891   0.0062342270628773    0.122599905397387   0.0512818899070486
  0.0174480661834612 0.000207387503636105    0.125689748129221  0.00668071677523474    0.116484749471933   0.0496266222763602
  0.0175353065143786  0.00020840791240437    0.103979968432042  0.00581248409464463    0.110593068596349   0.0480379975782969
  0.0176229830469504 0.000209434014349386    0.105318090179681  0.00593084119597727    0.104925005779329   0.0465125810039008
  0.0177110979621852  0.00021046581798005    0.101233668348996  0.00565559158817081   0.0994803871037339   0.0450471628592264
  0.0177996534519961 0.000211503332483257   0.0780670616195748  0.00486877406868039   0.0942587050357977   0.0436387403026562
  0.0178886517192561 0.000212546567708301    0.080998678831981  0.00493755652305269   0.0892591051310257   0.0422845008601539
  0.0179780949778524 0.000213595534151728   0.0850470631693869  0.00501887137830634   0.0844803760612678   0.0409818075163293
  0.0180679854527416 0.000214650242942618   0.0777795402266986  0.00486786228607706   0.0799209428748866   0.0397281852054392
  0.0181583253800053 0.000215710705828289   0.0736970409471485  0.00467858173198327   0.0755788633878582    0.038521308548867
  0.0182491170069054 0.000216776935160418   0.0675743596705008  0.00436160590319311   0.0714518275887977     0.03735899070484
  0.0183403625919399 0.000217848943881568   0.0642728015896613  0.00414135356778745    0.067537159925834   0.0362391732126544
  0.0184320644048996 0.000218926745512105   0.0602483772183181  0.00404280796877675   0.0638318243285329   0.0351599167279147
  0.0185242247269241 0.000220010354137503   0.0583397489117141  0.00393273980005994   0.0603324318041302     0.03411939255759
  0.0186168458505587 0.000221099784396029   0.0476538615370841  0.00356403744816496   0.0570352504346093   0.0331158749143564
  0.0187099300798115 0.000222195051466787   0.0469994439063275   0.0034390512307998   0.0539362175899551   0.0321477338189494
  0.0188034797302105 0.000223296171058126   0.0438402890789001  0.00325364954206328   0.0510309541635107     0.03121342858732
  0.0188974971288616 0.000224403159396396   0.0461714670100072   0.0033534927560419   0.0483147806279522   0.0303115018464266
  0.0189919846145059 0.000225516033215043     0.03905455362241  0.00302686460470366   0.0457827347051203   0.0294405740286547
  0.0190869445375784 0.000226634809744037   0.0415431945650534  0.00309211336917669   0.0434295904398691   0.0285993383002591
  0.0191823792602663 0.000227759506699627   0.0470130516493926  0.00335201777039443   0.0412498784672443   0.0277865558839686
  0.0192782911565677 0.000228890142274405   0.0413281861687408  0.00305935736782105   0.0392379072636345   0.0270010517400724
  0.0193746826123505 0.000230026735127682   0.0394204007980551  0.00293981753178277   0.0373877851759773   0.0262417105739951
  0.0194715560254122 0.000231169304376168   0.0351861965347906   0.0028206919138461   0.0356934430285231   0.0255074731416264
  0.0195689138055393 0.000232317869584929   0.0367874239486376   0.0028015184633934   0.0341486571138989   0.0247973328265578
   0.019666758374567  0.00023347245075865   0.0384283580791763  0.00288336237720221   0.0327470723840888   0.0241103324659392
  0.0197650921664398 0.000234633068333156   0.0297441030683041  0.00245034015745254   0.0314822256672569   0.0234455614039451
   0.019863917627272 0.000235799743167215   0.0340592890601323  0.00264038030337482   0.0303475687478442   0.0228021527538658
  0.0199632372154084 0.000236972496534598   0.0298986503774498  0.00242846693598456   0.0293364911598553   0.0221792808516457
  0.0200630534014854 0.000238151350116397   0.0327827135255493  0.00254145939322969   0.0284423425564782   0.0215761588853037
  0.0201633686684928 0.000239336325993595   0.0240767155690322  0.00217488394127876   0.0276584545329098   0.0209920366861168
  0.0202641855118353 0.000240527446639871    0.024849536274954  0.00222657522941002   0.0269781617932869   0.0204261986687379
  0.0203655064393945 0.000241724734914651   0.0234500415316779  0.00216543352691012   0.0263948225667104   0.0198779619085806
  0.0204673339715915 0.000242928214056383   0.0227582057812236  0.00201710903877718   0.0259018381913308   0.0193466743458469
  0.0205696706414494 0.000244137907676035   0.0240603845094751  0.00207325307004478   0.0254926717991307   0.0188317131065099
  0.0206725189946566 0.000245353839750816    0.024896888381303  0.00211498962914995   0.0251608660472505   0.0183324829314093
  0.0207758815896299 0.000246576034618105   0.0270456917821953  0.00214226421997164   0.0249000598543194   0.0178484147053795
  0.0208797609975781 0.000247804516969587   0.0205694913976105  0.00191335998228818   0.0247040041121401   0.0173789640790199
   0.020984159802566 0.000249039311845591   0.0289067927817697  0.00221946081756194   0.0245665763541611   0.0169236101763354
  0.0210890806015788 0.000250280444629624   0.0254897404148162  0.00205570333207057   0.0244817943723582   0.0164818543820444
  0.0211945260045867 0.000251527941043088   0.0249876015444999  0.00198526532107674    0.024443828783395   0.0160532192028589
  0.0213004986346096 0.000252781827140197   0.0254954749372809  0.00202420413773745   0.0244470145532016   0.0156372471975056
  0.0214070011277827 0.000254042129303053   0.0256920411663955  0.00201985261401013   0.0244858614963786   0.0152334999706787
  0.0215140361334216 0.000255308874236918   0.0227270943929065   0.0018823953254868   0.0245550637731086   0.0148415572264995
  0.0216216063140887 0.000256582088965641   0.0288091505295564  0.00209066903106715   0.0246495084115358   0.0144610158774041
  0.0217297143456591 0.000257861800827257   0.0250702106388677  0.00191426962843183   0.0247642828879005   0.0140914892047024
  0.0218383629173874 0.000259148037469746   0.0211909889445409  0.00180178950432104   0.0248946818001025   0.0137326060673371
  0.0219475547319744 0.000260440826846947   0.0225026586864272  0.00177978473634333   0.0250362126728796    0.013384010155642
  0.0220572925056342 0.000261740197214629   0.0247382572108218  0.00183570378514902   0.0251846009344639   0.0130453592871363
  0.0221675789681624 0.000263046177126699   0.0256891880866199  0.00187037355130143   0.0253357941054765   0.0127163247416166
  0.0222784168630032 0.000264358795431571   0.0258793890051848  0.00185800797400549   0.0254859652410131   0.0123965906330102
  0.0223898089473182 0.000265678081268657    0.026389259265814  0.00188553746195312   0.0256315156664053     0.01208585331564
  0.0225017579920548 0.000267004064065005   0.0252232413148397  0.00180602087035335   0.0257690770461008   0.0117838208227212
  0.0226142667820151 0.000268336773532067   0.0243661456278316  0.00177282253627139   0.0258955128235401   0.0114902123350687
  0.0227273381159251 0.000269676239662596   0.0284010449363942  0.00189681059349364   0.0260079190678974   0.0112047576781373
  0.0228409748065048 0.000271022492727661   0.0248154186295366  0.00173820876703718   0.0261036247611608   0.0109271968456487
  0.0229551796805373 0.000272375563273797   0.0247461870137924  0.00179899713105863   0.0261801915563156   0.0106572795481843
    0.02306995557894 0.000273735482120262   0.0282053036618973  0.00184725683318197   0.0262354130344365   0.0103947647852314
  0.0231853053568347 0.000275102280356411   0.0294081178441228  0.00184853902782501   0.0262673134853417   0.0101394204392788
  0.0233012318836188 0.000276475989339185   0.0291649129389894  0.00182235118195843   0.0262741462331901  0.00989102289064934
  0.0234177380430369 0.000277856640690707   0.0252343264004974  0.00173897969645756   0.0262543915250533  0.00964935665184871
  0.0235348267332521 0.000279244266295981   0.0294857579074085  0.00182397597868533   0.0262067539971447  0.00941421402028983
  0.0236525008669184 0.000280638898300697   0.0285317307468279  0.00179206720699856   0.0261301597300731  0.00918539474832852
   0.023770763371253 0.000282040569109133   0.0249009810544701  0.00164463464964829   0.0260237529012823  0.00896270572961583
  0.0238896171881092 0.000283449311382155   0.0277086467343137  0.00174770581724612   0.0258868920397748  0.00874596070083786
  0.0240090652740498 0.000284865158035315   0.0222390495876438  0.00155641223015185   0.0257191458853581  0.00853497995797339
    0.02412911060042 0.000286288142237032   0.0262441852609036  0.00164266617794014   0.0255202888520416  0.00832959008625578
  0.0242497561534221 0.000287718297406866   0.0255185998696113  0.00168948130500766   0.0252902960928926  0.00812962370307734
  0.0243710049341892 0.000289155657213885   0.0258333970614631  0.00164259915017789    0.025029338161681  0.00793491921312229
  0.0244928599588602 0.000290600255575107   0.0233519860534433  0.00157724345540094   0.0247377752650394  0.00774532057505935
  0.0246153242586545 0.000292052126654024   0.0241619335252845  0.00164353876279453   0.0244161510976821  0.00756067707916628
  0.0247384008799477 0.000293511304859213    0.024320360478098   0.0016199064229994    0.024065186252493  0.00738084313529752
  0.0248620928843475  0.00029497782484302   0.0221667980826403  0.00143930434945938   0.0236857711970464  0.00720567807064209
  0.0249864033487692 0.000296451721500313   0.0234273119452398  0.00148790308515747   0.0232789588083875  0.00703504593675216
   0.025111335365513 0.000297933029967319   0.0205305090866483  0.00138636332436801   0.0228459564586967  0.00686881532535444
  0.0252368920423406 0.000299421785620525   0.0209432031234897  0.00137734613257903   0.0223881176458144  0.00670685919248512
  0.0253630765025523 0.000300918024075649   0.0210770855394879  0.00135137496741485   0.0219069331645146  0.00654905469051674
  0.0254898918850651 0.000302421781186681   0.0223486604856423  0.00143238764155194   0.0214040218168952  0.00639528300767049
  0.0256173413444904 0.000303933093044981     0.01833220157497  0.00126389582824767    0.020881120663299  0.00624542921463132
  0.0257454280512128 0.000305451995978453    0.018762446465506  0.00126376985641626   0.0203400748187729  0.00609938211790522
  0.0258741551914689 0.000306978526550769   0.0188841081929433  0.00126340701766191   0.0197828268041998  0.00595703411957905
  0.0260035259674262  0.00030851272156066   0.0187833972247053  0.00126283565390481   0.0192114054658628  0.00581828108316239
  0.0261335435972634  0.00031005461804126   0.0178174212630475  0.00126288495346164   0.0186279144822862  0.00568302220520916
  0.0262642113152497 0.000311604253259513   0.0187659045892036  0.00122645614872998   0.0180345204826847  0.00555115989243402
  0.0263955323718259  0.00031316166471563   0.0174835291445267  0.00119234680307784   0.0174334408071904  0.00542259964405391
  0.0265275100336851 0.000314726890142599   0.0173506375982993  0.00119943554875235   0.0168269309451273  0.00529724993910065
  0.0266601475838535 0.000316299967505754   0.0176964015607499  0.00120911234150657   0.0162172716938965  0.00517502212846414
  0.0267934483217727 0.000317880935002384   0.0159261319923743  0.00118465663048973   0.0156067560874198  0.00505583033143907
  0.0269274155633816 0.000319469831061401   0.0148857578914235  0.00115035808516359   0.0149976761494615  0.00493959133656009
  0.0270620526411985  0.00032106669434305   0.0145922022519127  0.00106155012159515   0.0143923095334119  0.00482622450652246
  0.0271973629044045  0.00032267156373867   0.0143763869127087  0.00103986190979074   0.0137929061161326  0.00471565168699565
  0.0273333497189265 0.000324284478370495   0.0133101177178035  0.00100778243321888   0.0132016746191389  0.00460779711914782
  0.0274700164675212 0.000325905477591502   0.0132056322481997 0.000984165971619122   0.0126207693355846  0.00450258735570865
  0.0276073665498588 0.000327534600985307   0.0116667611861762 0.000928675908013392   0.0120522770461158  0.00439995118040725
   0.027745403382608  0.00032917188836609    0.011449742963377 0.000909534525293323   0.0114982042105413  0.00429981953063009
  0.0278841303995211 0.000330817379778575   0.0113551874601568 0.000906474893098194   0.0109604645253252  0.00420212542315216
  0.0280235510515187  0.00033247111549804   0.0119520684116577 0.000919603176432471   0.0104408669390319  0.00410680388280214
  0.0281636688067763 0.000334133136030368   0.0119082110381301 0.000950043509901746  0.00994110421895818  0.00401379187392928
  0.0283044871508101 0.000335803482112136  0.00917336929277507 0.000818350761285875  0.00946274216219001  0.00392302823454668
  0.0284460095865642 0.000337482194710744   0.0084121793723851 0.000760451566411393   0.0090072095431625  0.00383445361303184
   0.028588239634497 0.000339169315024572  0.00877080913090245  0.00078216132828357  0.00857578888743846  0.00374801040727129
  0.0287311808326695 0.000340864884483176  0.00971451574524836 0.000838187366853948  0.00816960815783214  0.00366364270614197
  0.0288748367368328 0.000342568944747518  0.00817539594231209 0.000764603643865992  0.00778963343419074  0.00358129623322715
   0.029019210920517  0.00034428153771023  0.00776650536677547 0.000735211724808987  0.00743666266213015  0.00350091829266978
  0.0291643069751196 0.000346002705495906  0.00738112718167627  0.00071163150546582  0.00711132053885029    0.003422457717071
  0.0293101285099952 0.000347732490461426   0.0062696349017611 0.000642425819713904  0.00681405459589962  0.00334586481734589
  0.0294566791525452 0.000349470935196316  0.00622409997518947 0.000634468443352964  0.00654513252950863  0.00327109133445298
  0.0296039625483079 0.000351218082523128  0.00553450833849197  0.00059264336421946  0.00630464081898139  0.00319809039291785
  0.0297519823610494 0.000352973975497859  0.00726678277238675 0.000693966833023444  0.00609248466275217  0.00312681645607519
  0.0299007422728547 0.000354738657410387  0.00497763462631193 0.000584201730066188  0.00590838925022686  0.00305722528295705
  0.0300502459842189 0.000356512171784949   0.0062548677159348 0.000671833019342386   0.0057519023755942  0.00298927388675865
    0.03020049721414  0.00035829456238063  0.00567912647340282 0.000594650643826353  0.00562239838757546  0.00292292049481619
  0.0303514997002107 0.000360085873191889  0.00565283596546974 0.000595177290151569  0.00551908345675515  0.00285812451003423
  0.0305032571987118 0.000361886148449104  0.00525294965799374 0.000569109053953369  0.00544100212987114   0.0027948464737032
  0.0306557734847053  0.00036369543261915  0.00504361826611589  0.00055975242653885  0.00538704512840811  0.00273304802965004
  0.0308090523521288  0.00036551377040599  0.00602903993759542 0.000608306105841715  0.00535595833719634  0.00267269188966808
  0.0309630976138895 0.000367341206751299  0.00469320828096453 0.000554525249676373  0.00534635291761776  0.00261374180017425
  0.0311179131019589 0.000369177786835105  0.00550992795472172 0.000591799020173589  0.00535671646960019  0.00255616251004439
  0.0312735026674687  0.00037102355607646  0.00582204378025388 0.000601620817735389  0.00538542515695948   0.0024999197395795
